# Data for different parent isotopes separated by empty lines
# Column values are:
# [1] - neutrino energy (MeV)
# [2] - capture luminosity (1/MeV/s)
# [3] - decay luminosity (1/MeV/s)


#	h1-->neut	tau_cc (hr) = 185.199
#	energy (MeV)	capture (MeV^-1 s^-1)	decay (MeV^-1 s^-1)
0.00	0.00000000e+00	0.00000000e+00
0.10	1.66858090e+39	0.00000000e+00
0.20	6.63816473e+39	0.00000000e+00
0.30	1.45050472e+40	0.00000000e+00
0.40	2.41971605e+40	0.00000000e+00
0.50	3.40377435e+40	0.00000000e+00
0.60	4.21935921e+40	0.00000000e+00
0.70	4.72918172e+40	0.00000000e+00
0.80	4.88359516e+40	0.00000000e+00
0.90	4.71939781e+40	0.00000000e+00
1.00	4.32534355e+40	0.00000000e+00
1.10	3.80162264e+40	0.00000000e+00
1.20	3.23292854e+40	0.00000000e+00
1.30	2.67848515e+40	0.00000000e+00
1.40	2.17322724e+40	0.00000000e+00
1.50	1.73352718e+40	0.00000000e+00
1.60	1.36341129e+40	0.00000000e+00
1.70	1.05960656e+40	0.00000000e+00
1.80	8.15100258e+39	0.00000000e+00
1.90	6.21429823e+39	0.00000000e+00
2.00	4.70042458e+39	0.00000000e+00
2.10	3.53028428e+39	0.00000000e+00
2.20	2.63456997e+39	0.00000000e+00
2.30	1.95473916e+39	0.00000000e+00
2.40	1.44265045e+39	0.00000000e+00
2.50	1.05952560e+39	0.00000000e+00
2.60	7.74642090e+38	0.00000000e+00
2.70	5.63990833e+38	0.00000000e+00
2.80	4.09025522e+38	0.00000000e+00
2.90	2.95562225e+38	0.00000000e+00
3.00	2.12847695e+38	0.00000000e+00
3.10	1.52792514e+38	0.00000000e+00
3.20	1.09353184e+38	0.00000000e+00
3.30	7.80427848e+37	0.00000000e+00
3.40	5.55488774e+37	0.00000000e+00
3.50	3.94386922e+37	0.00000000e+00
3.60	2.79339785e+37	0.00000000e+00
3.70	1.97405824e+37	0.00000000e+00
3.80	1.39204648e+37	0.00000000e+00
3.90	9.79625691e+36	0.00000000e+00
4.00	6.88053131e+36	0.00000000e+00
4.10	4.82368444e+36	0.00000000e+00
4.20	3.37573153e+36	0.00000000e+00
4.30	2.35843289e+36	0.00000000e+00
4.40	1.64504586e+36	0.00000000e+00
4.50	1.14567527e+36	0.00000000e+00
4.60	7.96713907e+35	0.00000000e+00
4.70	5.53257294e+35	0.00000000e+00
4.80	3.83672548e+35	0.00000000e+00
4.90	2.65721454e+35	0.00000000e+00
5.00	1.83800607e+35	0.00000000e+00
5.10	1.26982117e+35	0.00000000e+00
5.20	8.76260378e+34	0.00000000e+00
5.30	6.04000652e+34	0.00000000e+00
5.40	4.15884640e+34	0.00000000e+00
5.50	2.86059444e+34	0.00000000e+00
5.60	1.96563762e+34	0.00000000e+00
5.70	1.34936487e+34	0.00000000e+00
5.80	9.25440283e+33	0.00000000e+00
5.90	6.34123726e+33	0.00000000e+00
6.00	4.34129326e+33	0.00000000e+00
6.10	2.96958694e+33	0.00000000e+00
6.20	2.02962815e+33	0.00000000e+00
6.30	1.38609052e+33	0.00000000e+00
6.40	9.45871290e+32	0.00000000e+00
6.50	6.44982629e+32	0.00000000e+00
6.60	4.39490244e+32	0.00000000e+00
6.70	2.99257477e+32	0.00000000e+00
6.80	2.03631160e+32	0.00000000e+00
6.90	1.38469922e+32	0.00000000e+00
7.00	9.40993904e+31	0.00000000e+00
7.10	6.39066648e+31	0.00000000e+00
7.20	4.33751504e+31	0.00000000e+00
7.30	2.94224300e+31	0.00000000e+00
7.40	1.99464546e+31	0.00000000e+00
7.50	1.35147862e+31	0.00000000e+00
7.60	9.15198548e+30	0.00000000e+00
7.70	6.19427240e+30	0.00000000e+00
7.80	4.19025098e+30	0.00000000e+00
7.90	2.83315423e+30	0.00000000e+00
8.00	1.91463652e+30	0.00000000e+00
8.10	1.29328339e+30	0.00000000e+00
8.20	8.73167144e+29	0.00000000e+00
8.30	5.89253712e+29	0.00000000e+00
8.40	3.97478148e+29	0.00000000e+00
8.50	2.67999982e+29	0.00000000e+00
8.60	1.80622259e+29	0.00000000e+00
8.70	1.21682199e+29	0.00000000e+00
8.80	8.19419371e+28	0.00000000e+00
8.90	5.51585440e+28	0.00000000e+00
9.00	3.71150984e+28	0.00000000e+00
9.10	2.49645319e+28	0.00000000e+00
9.20	1.67855217e+28	0.00000000e+00
9.30	1.12820589e+28	0.00000000e+00
9.40	7.58031695e+27	0.00000000e+00
9.50	5.09137573e+27	0.00000000e+00
9.60	3.41849454e+27	0.00000000e+00
9.70	2.29450850e+27	0.00000000e+00
9.80	1.53958079e+27	0.00000000e+00
9.90	1.03270488e+27	0.00000000e+00
10.00	6.92490335e+26	0.00000000e+00
10.10	4.64213418e+26	0.00000000e+00
10.20	3.11093396e+26	0.00000000e+00
10.30	2.08418181e+26	0.00000000e+00
10.40	1.39590101e+26	0.00000000e+00
10.50	9.34652725e+25	0.00000000e+00
10.60	6.25640619e+25	0.00000000e+00
10.70	4.18678725e+25	0.00000000e+00
10.80	2.80104690e+25	0.00000000e+00
10.90	1.87346495e+25	0.00000000e+00
11.00	1.25273319e+25	0.00000000e+00
11.10	8.37454955e+24	0.00000000e+00
11.20	5.59701168e+24	0.00000000e+00
11.30	3.73976911e+24	0.00000000e+00
11.40	2.49821080e+24	0.00000000e+00
11.50	1.66844134e+24	0.00000000e+00
11.60	1.11401790e+24	0.00000000e+00
11.70	7.43660164e+23	0.00000000e+00
11.80	4.96317630e+23	0.00000000e+00
11.90	3.31168771e+23	0.00000000e+00
12.00	2.20925161e+23	0.00000000e+00
12.10	1.47349505e+23	0.00000000e+00
12.20	9.82565347e+22	0.00000000e+00
12.30	6.55065856e+22	0.00000000e+00
12.40	4.36637183e+22	0.00000000e+00
12.50	2.90984688e+22	0.00000000e+00
12.60	1.93880723e+22	0.00000000e+00
12.70	1.29156291e+22	0.00000000e+00
12.80	8.60229365e+21	0.00000000e+00
12.90	5.72838311e+21	0.00000000e+00
13.00	3.81390789e+21	0.00000000e+00
13.10	2.53880855e+21	0.00000000e+00
13.20	1.68971135e+21	0.00000000e+00
13.30	1.12439549e+21	0.00000000e+00
13.40	7.48084838e+20	0.00000000e+00
13.50	4.97632708e+20	0.00000000e+00
13.60	3.30974402e+20	0.00000000e+00
13.70	2.20094102e+20	0.00000000e+00
13.80	1.46336271e+20	0.00000000e+00
13.90	9.72805850e+19	0.00000000e+00
14.00	6.46594498e+19	0.00000000e+00
14.10	4.29705052e+19	0.00000000e+00
14.20	2.85523938e+19	0.00000000e+00
14.30	1.89692059e+19	0.00000000e+00
14.40	1.26006015e+19	0.00000000e+00
14.50	8.36892742e+18	0.00000000e+00
14.60	5.55757909e+18	0.00000000e+00
14.70	3.69011313e+18	0.00000000e+00
14.80	2.44981199e+18	0.00000000e+00
14.90	1.62616915e+18	0.00000000e+00
15.00	1.07929308e+18	0.00000000e+00
15.10	7.16233450e+17	0.00000000e+00
15.20	4.75239053e+17	0.00000000e+00
15.30	3.15291845e+17	0.00000000e+00
15.40	2.09149680e+17	0.00000000e+00
15.50	1.38722301e+17	0.00000000e+00
15.60	9.19984869e+16	0.00000000e+00
15.70	6.10043987e+16	0.00000000e+00
15.80	4.04471913e+16	0.00000000e+00
15.90	2.68140885e+16	0.00000000e+00
16.00	1.77740272e+16	0.00000000e+00
16.10	1.17803293e+16	0.00000000e+00
16.20	7.80689739e+15	0.00000000e+00
16.30	5.17308484e+15	0.00000000e+00
16.40	3.42745243e+15	0.00000000e+00
16.50	2.27062079e+15	0.00000000e+00
16.60	1.50407580e+15	0.00000000e+00
16.70	9.96201901e+14	0.00000000e+00
16.80	6.59748073e+14	0.00000000e+00
16.90	4.36880431e+14	0.00000000e+00
17.00	2.89268606e+14	0.00000000e+00
17.10	1.91511485e+14	0.00000000e+00
17.20	1.26777943e+14	0.00000000e+00
17.30	8.39167105e+13	0.00000000e+00
17.40	5.55404791e+13	0.00000000e+00
17.50	3.67559557e+13	0.00000000e+00
17.60	2.43222220e+13	0.00000000e+00
17.70	1.60929888e+13	0.00000000e+00
17.80	1.06470326e+13	0.00000000e+00
17.90	7.04335156e+12	0.00000000e+00
18.00	4.65896580e+12	0.00000000e+00
18.10	3.08148117e+12	0.00000000e+00
18.20	2.03793257e+12	0.00000000e+00
18.30	1.34766156e+12	0.00000000e+00
18.40	8.91113596e+11	0.00000000e+00
18.50	5.89178534e+11	0.00000000e+00
18.60	3.89513771e+11	0.00000000e+00
18.70	2.57490485e+11	0.00000000e+00
18.80	1.70201129e+11	0.00000000e+00
18.90	1.12493385e+11	0.00000000e+00
19.00	7.43455924e+10	0.00000000e+00
19.10	4.91300897e+10	0.00000000e+00
19.20	3.24641735e+10	0.00000000e+00
19.30	2.14499365e+10	0.00000000e+00
19.40	1.41714047e+10	0.00000000e+00
19.50	9.36193011e+09	0.00000000e+00
19.60	6.18420457e+09	0.00000000e+00
19.70	4.08477967e+09	0.00000000e+00
19.80	2.69786426e+09	0.00000000e+00
19.90	1.78171643e+09	0.00000000e+00


#	f17-->o17	tau_cc (hr) = 1.85199000e+02
#	energy (MeV)	capture (MeV^-1 s^-1)	decay (MeV^-1 s^-1)
0.00	0.00000000e+00	0.00000000e+00
0.10	0.00000000e+00	4.57451635e+37
0.20	0.00000000e+00	1.64924890e+38
0.30	0.00000000e+00	3.32487257e+38
0.40	0.00000000e+00	5.26086789e+38
0.50	0.00000000e+00	7.26079959e+38
0.60	0.00000000e+00	9.15518303e+38
0.70	0.00000000e+00	1.08013777e+39
0.80	0.00000000e+00	1.20834208e+39
0.90	0.00000000e+00	1.29117605e+39
1.00	0.00000000e+00	1.32228077e+39
1.10	0.00000000e+00	1.29781350e+39
1.20	0.00000000e+00	1.21628639e+39
1.30	0.00000000e+00	1.07818459e+39
1.40	0.00000000e+00	8.84836877e+38
1.50	0.00000000e+00	6.33775267e+38
1.60	0.00000000e+00	2.80148974e+38
1.70	0.00000000e+00	4.60030026e+35
1.80	0.00000000e+00	1.07723888e+33
1.90	0.00000000e+00	0.00000000e+00
2.00	0.00000000e+00	0.00000000e+00
2.10	0.00000000e+00	0.00000000e+00
2.20	0.00000000e+00	0.00000000e+00
2.30	0.00000000e+00	0.00000000e+00
2.40	0.00000000e+00	0.00000000e+00
2.50	0.00000000e+00	0.00000000e+00
2.60	0.00000000e+00	0.00000000e+00
2.70	1.19760777e+37	0.00000000e+00
2.80	2.64124510e+37	0.00000000e+00
2.90	3.30055028e+37	0.00000000e+00
3.00	3.37595350e+37	0.00000000e+00
3.10	3.09556507e+37	0.00000000e+00
3.20	2.65220256e+37	0.00000000e+00
3.30	2.17071770e+37	0.00000000e+00
3.40	1.71948273e+37	0.00000000e+00
3.50	1.32879543e+37	0.00000000e+00
3.60	1.00682394e+37	0.00000000e+00
3.70	7.50444988e+36	0.00000000e+00
3.80	5.51580373e+36	0.00000000e+00
3.90	4.00572362e+36	0.00000000e+00
4.00	2.87911381e+36	0.00000000e+00
4.10	2.05087818e+36	0.00000000e+00
4.20	1.44944055e+36	0.00000000e+00
4.30	1.01722506e+36	0.00000000e+00
4.40	7.09410734e+35	0.00000000e+00
4.50	4.91934857e+35	0.00000000e+00
4.60	3.39376774e+35	0.00000000e+00
4.70	2.33040656e+35	0.00000000e+00
4.80	1.59346500e+35	0.00000000e+00
4.90	1.08537014e+35	0.00000000e+00
5.00	7.36682331e+34	0.00000000e+00
5.10	4.98395656e+34	0.00000000e+00
5.20	3.36178046e+34	0.00000000e+00
5.30	2.26132238e+34	0.00000000e+00
5.40	1.51719065e+34	0.00000000e+00
5.50	1.01550071e+34	0.00000000e+00
5.60	6.78192987e+33	0.00000000e+00
5.70	4.51984760e+33	0.00000000e+00
5.80	3.00642883e+33	0.00000000e+00
5.90	1.99613259e+33	0.00000000e+00
6.00	1.32309173e+33	0.00000000e+00
6.10	8.75588399e+32	0.00000000e+00
6.20	5.78580627e+32	0.00000000e+00
6.30	3.81788934e+32	0.00000000e+00
6.40	2.51604108e+32	0.00000000e+00
6.50	1.65609158e+32	0.00000000e+00
6.60	1.08882640e+32	0.00000000e+00
6.70	7.15112531e+31	0.00000000e+00
6.80	4.69206325e+31	0.00000000e+00
6.90	3.07579926e+31	0.00000000e+00
7.00	2.01458926e+31	0.00000000e+00
7.10	1.31849370e+31	0.00000000e+00
7.20	8.62303749e+30	0.00000000e+00
7.30	5.63585595e+30	0.00000000e+00
7.40	3.68131346e+30	0.00000000e+00
7.50	2.40333405e+30	0.00000000e+00
7.60	1.56826104e+30	0.00000000e+00
7.70	1.02291415e+30	0.00000000e+00
7.80	6.66960027e+29	0.00000000e+00
7.90	4.34733138e+29	0.00000000e+00
8.00	2.83289185e+29	0.00000000e+00
8.10	1.84562294e+29	0.00000000e+00
8.20	1.20221620e+29	0.00000000e+00
8.30	7.83013295e+28	0.00000000e+00
8.40	5.09943969e+28	0.00000000e+00
8.50	3.32094594e+28	0.00000000e+00
8.60	2.16274770e+28	0.00000000e+00
8.70	1.40855159e+28	0.00000000e+00
8.80	9.17444948e+27	0.00000000e+00
8.90	5.97646728e+27	0.00000000e+00
9.00	3.89388046e+27	0.00000000e+00
9.10	2.53752209e+27	0.00000000e+00
9.20	1.65402126e+27	0.00000000e+00
9.30	1.07842653e+27	0.00000000e+00
9.40	7.03350300e+26	0.00000000e+00
9.50	4.58877819e+26	0.00000000e+00
9.60	2.99487400e+26	0.00000000e+00
9.70	1.95536180e+26	0.00000000e+00
9.80	1.27718234e+26	0.00000000e+00
9.90	8.34574556e+25	0.00000000e+00
10.00	5.45597244e+25	0.00000000e+00
10.10	3.56846485e+25	0.00000000e+00
10.20	2.33506743e+25	0.00000000e+00
10.30	1.52873343e+25	0.00000000e+00
10.40	1.00134354e+25	0.00000000e+00
10.50	6.56231696e+24	0.00000000e+00
10.60	4.30285695e+24	0.00000000e+00
10.70	2.82282649e+24	0.00000000e+00
10.80	1.85284944e+24	0.00000000e+00
10.90	1.21681626e+24	0.00000000e+00
11.00	7.99536435e+23	0.00000000e+00
11.10	5.25628097e+23	0.00000000e+00
11.20	3.45735432e+23	0.00000000e+00
11.30	2.27526226e+23	0.00000000e+00
11.40	1.49809002e+23	0.00000000e+00
11.50	9.86868381e+22	0.00000000e+00
11.60	6.50415528e+22	0.00000000e+00
11.70	4.28872167e+22	0.00000000e+00
11.80	2.82920646e+22	0.00000000e+00
11.90	1.86721935e+22	0.00000000e+00
12.00	1.23285991e+22	0.00000000e+00
12.10	8.14354091e+21	0.00000000e+00
12.20	5.38130009e+21	0.00000000e+00
12.30	3.55736581e+21	0.00000000e+00
12.40	2.35250251e+21	0.00000000e+00
12.50	1.55626895e+21	0.00000000e+00
12.60	1.02987581e+21	0.00000000e+00
12.70	6.81747175e+20	0.00000000e+00
12.80	4.51432417e+20	0.00000000e+00
12.90	2.99009989e+20	0.00000000e+00
13.00	1.98104761e+20	0.00000000e+00
13.10	1.31284423e+20	0.00000000e+00
13.20	8.70228798e+19	0.00000000e+00
13.30	5.76963975e+19	0.00000000e+00
13.40	3.82606313e+19	0.00000000e+00
13.50	2.53768137e+19	0.00000000e+00
13.60	1.68343791e+19	0.00000000e+00
13.70	1.11692979e+19	0.00000000e+00
13.80	7.41169115e+18	0.00000000e+00
13.90	4.91887221e+18	0.00000000e+00
14.00	3.26486234e+18	0.00000000e+00
14.10	2.16725417e+18	0.00000000e+00
14.20	1.43878275e+18	0.00000000e+00
14.30	9.55247644e+17	0.00000000e+00
14.40	6.34259942e+17	0.00000000e+00
14.50	4.21157525e+17	0.00000000e+00
14.60	2.79668418e+17	0.00000000e+00
14.70	1.85720440e+17	0.00000000e+00
14.80	1.23335878e+17	0.00000000e+00
14.90	8.19084755e+16	0.00000000e+00
15.00	5.43969289e+16	0.00000000e+00
15.10	3.61262314e+16	0.00000000e+00
15.20	2.39922239e+16	0.00000000e+00
15.30	1.59336368e+16	0.00000000e+00
15.40	1.05816412e+16	0.00000000e+00
15.50	7.02719846e+15	0.00000000e+00
15.60	4.66659337e+15	0.00000000e+00
15.70	3.09887392e+15	0.00000000e+00
15.80	2.05774647e+15	0.00000000e+00
15.90	1.36634942e+15	0.00000000e+00
16.00	9.07218132e+14	0.00000000e+00
16.10	6.02337516e+14	0.00000000e+00
16.20	3.99893813e+14	0.00000000e+00
16.30	2.65475523e+14	0.00000000e+00
16.40	1.76229207e+14	0.00000000e+00
16.50	1.16977827e+14	0.00000000e+00
16.60	7.76426336e+13	0.00000000e+00
16.70	5.15307990e+13	0.00000000e+00
16.80	3.41981306e+13	0.00000000e+00
16.90	2.26937242e+13	0.00000000e+00
17.00	1.50583096e+13	0.00000000e+00
17.10	9.99109117e+12	0.00000000e+00
17.20	6.62849842e+12	0.00000000e+00
17.30	4.39726109e+12	0.00000000e+00
17.40	2.91684690e+12	0.00000000e+00
17.50	1.93467837e+12	0.00000000e+00
17.60	1.28311977e+12	0.00000000e+00
17.70	8.50919517e+11	0.00000000e+00
17.80	5.64250912e+11	0.00000000e+00
17.90	3.74126291e+11	0.00000000e+00
18.00	2.48042497e+11	0.00000000e+00
18.10	1.64435516e+11	0.00000000e+00
18.20	1.09000034e+11	0.00000000e+00
18.30	7.22468559e+10	0.00000000e+00
18.40	4.78820199e+10	0.00000000e+00
18.50	3.17312414e+10	0.00000000e+00
18.60	2.10262930e+10	0.00000000e+00
18.70	1.39315472e+10	0.00000000e+00
18.80	9.22989992e+09	0.00000000e+00
18.90	6.11442508e+09	0.00000000e+00
19.00	4.05018917e+09	0.00000000e+00
19.10	2.68260106e+09	0.00000000e+00
19.20	1.77663434e+09	0.00000000e+00
19.30	1.17652533e+09	0.00000000e+00
19.40	7.79051015e+08	0.00000000e+00
19.50	5.15812708e+08	0.00000000e+00
19.60	3.41491437e+08	0.00000000e+00
19.70	2.26062958e+08	0.00000000e+00
19.80	1.49637681e+08	0.00000000e+00
19.90	9.90409240e+07	0.00000000e+00


#	f18-->o18	tau_cc (hr) = 1.85199000e+02
#	energy (MeV)	capture (MeV^-1 s^-1)	decay (MeV^-1 s^-1)
0.00	0.00000000e+00	0.00000000e+00
0.10	0.00000000e+00	2.52970455e+45
0.20	0.00000000e+00	7.66850265e+45
0.30	0.00000000e+00	1.24370970e+46
0.40	0.00000000e+00	1.44459688e+46
0.50	0.00000000e+00	1.11012564e+46
0.60	0.00000000e+00	5.62141748e+41
0.70	0.00000000e+00	0.00000000e+00
0.80	0.00000000e+00	0.00000000e+00
0.90	0.00000000e+00	0.00000000e+00
1.00	0.00000000e+00	0.00000000e+00
1.10	0.00000000e+00	0.00000000e+00
1.20	0.00000000e+00	0.00000000e+00
1.30	2.76491680e+37	0.00000000e+00
1.40	8.98312352e+31	0.00000000e+00
1.50	2.28919428e+26	0.00000000e+00
1.60	3.05119494e+44	0.00000000e+00
1.70	7.48576911e+42	0.00000000e+00
1.80	1.24168185e+42	0.00000000e+00
1.90	7.98873434e+41	0.00000000e+00
2.00	4.81776005e+41	0.00000000e+00
2.10	2.71844258e+41	0.00000000e+00
2.20	1.47177601e+41	0.00000000e+00
2.30	7.74612329e+40	0.00000000e+00
2.40	3.99277444e+40	0.00000000e+00
2.50	2.02504588e+40	0.00000000e+00
2.60	1.01374317e+40	0.00000000e+00
2.70	5.02024165e+39	0.00000000e+00
2.80	2.46345707e+39	0.00000000e+00
2.90	1.19933546e+39	0.00000000e+00
3.00	5.79889441e+38	0.00000000e+00
3.10	2.78680602e+38	0.00000000e+00
3.20	1.33201802e+38	0.00000000e+00
3.30	6.33566463e+37	0.00000000e+00
3.40	3.00021950e+37	0.00000000e+00
3.50	1.41502453e+37	0.00000000e+00
3.60	6.64926763e+36	0.00000000e+00
3.70	3.11396476e+36	0.00000000e+00
3.80	1.45378767e+36	0.00000000e+00
3.90	6.76772507e+35	0.00000000e+00
4.00	3.14223587e+35	0.00000000e+00
4.10	1.45540971e+35	0.00000000e+00
4.20	6.72632997e+34	0.00000000e+00
4.30	3.10254548e+34	0.00000000e+00
4.40	1.42861995e+34	0.00000000e+00
4.50	6.56908247e+33	0.00000000e+00
4.60	3.01748049e+33	0.00000000e+00
4.70	1.38530934e+33	0.00000000e+00
4.80	6.36055553e+32	0.00000000e+00
4.90	2.92333919e+32	0.00000000e+00
5.00	1.34660945e+32	0.00000000e+00
5.10	6.22784049e+31	0.00000000e+00
5.20	2.89872843e+31	0.00000000e+00
5.30	1.36224694e+31	0.00000000e+00
5.40	6.49095992e+30	0.00000000e+00
5.50	3.15220656e+30	0.00000000e+00
5.60	1.56935441e+30	0.00000000e+00
5.70	8.05717398e+29	0.00000000e+00
5.80	4.28654306e+29	0.00000000e+00
5.90	2.36954560e+29	0.00000000e+00
6.00	1.36075238e+29	0.00000000e+00
6.10	8.09386497e+28	0.00000000e+00
6.20	4.96184851e+28	0.00000000e+00
6.30	3.11693400e+28	0.00000000e+00
6.40	1.99509404e+28	0.00000000e+00
6.50	1.29490053e+28	0.00000000e+00
6.60	8.48904078e+27	0.00000000e+00
6.70	5.60473235e+27	0.00000000e+00
6.80	3.71876151e+27	0.00000000e+00
6.90	2.47589918e+27	0.00000000e+00
7.00	1.65235320e+27	0.00000000e+00
7.10	1.10457503e+27	0.00000000e+00
7.20	7.39259540e+26	0.00000000e+00
7.30	4.95180651e+26	0.00000000e+00
7.40	3.31892689e+26	0.00000000e+00
7.50	2.22552602e+26	0.00000000e+00
7.60	1.49287461e+26	0.00000000e+00
7.70	1.00170136e+26	0.00000000e+00
7.80	6.72287848e+25	0.00000000e+00
7.90	4.51292512e+25	0.00000000e+00
8.00	3.02994361e+25	0.00000000e+00
8.10	2.03457962e+25	0.00000000e+00
8.20	1.36637632e+25	0.00000000e+00
8.30	9.17728483e+24	0.00000000e+00
8.40	6.16452630e+24	0.00000000e+00
8.50	4.14114636e+24	0.00000000e+00
8.60	2.78208778e+24	0.00000000e+00
8.70	1.86915195e+24	0.00000000e+00
8.80	1.25584548e+24	0.00000000e+00
8.90	8.43800978e+23	0.00000000e+00
9.00	5.66957566e+23	0.00000000e+00
9.10	3.80945116e+23	0.00000000e+00
9.20	2.55958946e+23	0.00000000e+00
9.30	1.71976519e+23	0.00000000e+00
9.40	1.15545741e+23	0.00000000e+00
9.50	7.76282632e+22	0.00000000e+00
9.60	5.21509589e+22	0.00000000e+00
9.70	3.50329552e+22	0.00000000e+00
9.80	2.35320106e+22	0.00000000e+00
9.90	1.58053829e+22	0.00000000e+00
10.00	1.06147771e+22	0.00000000e+00
10.10	7.12808610e+21	0.00000000e+00
10.20	4.78616593e+21	0.00000000e+00
10.30	3.21330592e+21	0.00000000e+00
10.40	2.15706317e+21	0.00000000e+00
10.50	1.44782899e+21	0.00000000e+00
10.60	9.71656220e+20	0.00000000e+00
10.70	6.51998367e+20	0.00000000e+00
10.80	4.37438097e+20	0.00000000e+00
10.90	2.93441029e+20	0.00000000e+00
11.00	1.96814589e+20	0.00000000e+00
11.10	1.31984882e+20	0.00000000e+00
11.20	8.84952477e+19	0.00000000e+00
11.30	5.93257365e+19	0.00000000e+00
11.40	3.97642177e+19	0.00000000e+00
11.50	2.66481292e+19	0.00000000e+00
11.60	1.78552095e+19	0.00000000e+00
11.70	1.19615159e+19	0.00000000e+00
11.80	8.01179378e+18	0.00000000e+00
11.90	5.36531109e+18	0.00000000e+00
12.00	3.59237037e+18	0.00000000e+00
12.10	2.40484942e+18	0.00000000e+00
12.20	1.60958861e+18	0.00000000e+00
12.30	1.07711440e+18	0.00000000e+00
12.40	7.20656865e+17	0.00000000e+00
12.50	4.82075255e+17	0.00000000e+00
12.60	3.22419089e+17	0.00000000e+00
12.70	2.15598759e+17	0.00000000e+00
12.80	1.44142300e+17	0.00000000e+00
12.90	9.63510544e+16	0.00000000e+00
13.00	6.43934241e+16	0.00000000e+00
13.10	4.30275709e+16	0.00000000e+00
13.20	2.87456871e+16	0.00000000e+00
13.30	1.92008056e+16	0.00000000e+00
13.40	1.28229358e+16	0.00000000e+00
13.50	8.56203786e+15	0.00000000e+00
13.60	5.71595678e+15	0.00000000e+00
13.70	3.81525253e+15	0.00000000e+00
13.80	2.54613081e+15	0.00000000e+00
13.90	1.69887620e+15	0.00000000e+00
14.00	1.13335738e+15	0.00000000e+00
14.10	7.55956330e+14	0.00000000e+00
14.20	5.04140774e+14	0.00000000e+00
14.30	3.36149752e+14	0.00000000e+00
14.40	2.24099167e+14	0.00000000e+00
14.50	1.49373926e+14	0.00000000e+00
14.60	9.95490388e+13	0.00000000e+00
14.70	6.63327073e+13	0.00000000e+00
14.80	4.41923812e+13	0.00000000e+00
14.90	2.94372169e+13	0.00000000e+00
