# Data for different parent isotopes separated by empty lines
# Column values are:
# [1] - neutrino energy (MeV)
# [2] - capture luminosity (1/MeV/s)
# [3] - decay luminosity (1/MeV/s)


#	h1-->neut	tau_cc (hr) = 7.44464
#	energy (MeV)	capture (MeV^-1 s^-1)	decay (MeV^-1 s^-1)
0.00	0.00000000e+00	0.00000000e+00
0.10	5.51263896e+44	0.00000000e+00
0.20	2.20220738e+45	0.00000000e+00
0.30	4.79037703e+45	0.00000000e+00
0.40	7.98718867e+45	0.00000000e+00
0.50	1.13834597e+46	0.00000000e+00
0.60	1.45819139e+46	0.00000000e+00
0.70	1.72683981e+46	0.00000000e+00
0.80	1.92479627e+46	0.00000000e+00
0.90	2.04469169e+46	0.00000000e+00
1.00	2.08912959e+46	0.00000000e+00
1.10	2.06747403e+46	0.00000000e+00
1.20	1.99264112e+46	0.00000000e+00
1.30	1.87851611e+46	0.00000000e+00
1.40	1.73820266e+46	0.00000000e+00
1.50	1.58304102e+46	0.00000000e+00
1.60	1.42221055e+46	0.00000000e+00
1.70	1.26271569e+46	0.00000000e+00
1.80	1.10958893e+46	0.00000000e+00
1.90	9.66192569e+45	0.00000000e+00
2.00	8.34544634e+45	0.00000000e+00
2.10	7.15626972e+45	0.00000000e+00
2.20	6.09655170e+45	0.00000000e+00
2.30	5.16303462e+45	0.00000000e+00
2.40	4.34884836e+45	0.00000000e+00
2.50	3.64490828e+45	0.00000000e+00
2.60	3.04096637e+45	0.00000000e+00
2.70	2.52637656e+45	0.00000000e+00
2.80	2.09063131e+45	0.00000000e+00
2.90	1.72371952e+45	0.00000000e+00
3.00	1.41634824e+45	0.00000000e+00
3.10	1.16006349e+45	0.00000000e+00
3.20	9.47297991e+44	0.00000000e+00
3.30	7.71368042e+44	0.00000000e+00
3.40	6.26436403e+44	0.00000000e+00
3.50	5.07454138e+44	0.00000000e+00
3.60	4.10090694e+44	0.00000000e+00
3.70	3.30659089e+44	0.00000000e+00
3.80	2.66040889e+44	0.00000000e+00
3.90	2.13614083e+44	0.00000000e+00
4.00	1.71185811e+44	0.00000000e+00
4.10	1.36931013e+44	0.00000000e+00
4.20	1.09337488e+44	0.00000000e+00
4.30	8.71573721e+43	0.00000000e+00
4.40	6.93648108e+43	0.00000000e+00
4.50	5.51194056e+43	0.00000000e+00
4.60	4.37349278e+43	0.00000000e+00
4.70	3.46527290e+43	0.00000000e+00
4.80	2.74193146e+43	0.00000000e+00
4.90	2.16675288e+43	0.00000000e+00
5.00	1.71008608e+43	0.00000000e+00
5.10	1.34804150e+43	0.00000000e+00
5.20	1.06141447e+43	0.00000000e+00
5.30	8.34798909e+42	0.00000000e+00
5.40	6.55860601e+42	0.00000000e+00
5.50	5.14743360e+42	0.00000000e+00
5.60	4.03585358e+42	0.00000000e+00
5.70	3.16126244e+42	0.00000000e+00
5.80	2.47389087e+42	0.00000000e+00
5.90	1.93423384e+42	0.00000000e+00
6.00	1.51098040e+42	0.00000000e+00
6.10	1.17934931e+42	0.00000000e+00
6.20	9.19753848e+41	0.00000000e+00
6.30	7.16733220e+41	0.00000000e+00
6.40	5.58098595e+41	0.00000000e+00
6.50	4.34252216e+41	0.00000000e+00
6.60	3.37645256e+41	0.00000000e+00
6.70	2.62347012e+41	0.00000000e+00
6.80	2.03702991e+41	0.00000000e+00
6.90	1.58064042e+41	0.00000000e+00
7.00	1.22572027e+41	0.00000000e+00
7.10	9.49904958e+40	0.00000000e+00
7.20	7.35710551e+40	0.00000000e+00
7.30	5.69480857e+40	0.00000000e+00
7.40	4.40558462e+40	0.00000000e+00
7.50	3.40633178e+40	0.00000000e+00
7.60	2.63230223e+40	0.00000000e+00
7.70	2.03308793e+40	0.00000000e+00
7.80	1.56947402e+40	0.00000000e+00
7.90	1.21097559e+40	0.00000000e+00
8.00	9.33910953e+39	0.00000000e+00
8.10	7.19895872e+39	0.00000000e+00
8.20	5.54668077e+39	0.00000000e+00
8.30	4.27170128e+39	0.00000000e+00
8.40	3.28834643e+39	0.00000000e+00
8.50	2.53027577e+39	0.00000000e+00
8.60	1.94614945e+39	0.00000000e+00
8.70	1.49625930e+39	0.00000000e+00
8.80	1.14991046e+39	0.00000000e+00
8.90	8.83388404e+38	0.00000000e+00
9.00	6.78381102e+38	0.00000000e+00
9.10	5.20755575e+38	0.00000000e+00
9.20	3.99609567e+38	0.00000000e+00
9.30	3.06537147e+38	0.00000000e+00
9.40	2.35060159e+38	0.00000000e+00
9.50	1.80188438e+38	0.00000000e+00
9.60	1.38079749e+38	0.00000000e+00
9.70	1.05777019e+38	0.00000000e+00
9.80	8.10053910e+37	0.00000000e+00
9.90	6.20155646e+37	0.00000000e+00
10.00	4.74629235e+37	0.00000000e+00
10.10	3.63143264e+37	0.00000000e+00
10.20	2.77762686e+37	0.00000000e+00
10.30	2.12395241e+37	0.00000000e+00
10.40	1.62365270e+37	0.00000000e+00
10.50	1.24085608e+37	0.00000000e+00
10.60	9.48051563e+36	0.00000000e+00
10.70	7.24147577e+36	0.00000000e+00
10.80	5.52979472e+36	0.00000000e+00
10.90	4.22162756e+36	0.00000000e+00
11.00	3.22212149e+36	0.00000000e+00
11.10	2.45865193e+36	0.00000000e+00
11.20	1.87563071e+36	0.00000000e+00
11.30	1.43052252e+36	0.00000000e+00
11.40	1.09078975e+36	0.00000000e+00
11.50	8.31549721e+35	0.00000000e+00
11.60	6.33779247e+35	0.00000000e+00
11.70	4.82938882e+35	0.00000000e+00
11.80	3.67919159e+35	0.00000000e+00
11.90	2.80233701e+35	0.00000000e+00
12.00	2.13401600e+35	0.00000000e+00
12.10	1.62474760e+35	0.00000000e+00
12.20	1.23676333e+35	0.00000000e+00
12.30	9.41241922e+34	0.00000000e+00
12.40	7.16195110e+34	0.00000000e+00
12.50	5.44851670e+34	0.00000000e+00
12.60	4.14422634e+34	0.00000000e+00
12.70	3.15157937e+34	0.00000000e+00
12.80	2.39626015e+34	0.00000000e+00
12.90	1.82163726e+34	0.00000000e+00
13.00	1.38456495e+34	0.00000000e+00
13.10	1.05217864e+34	0.00000000e+00
13.20	7.99450461e+33	0.00000000e+00
13.30	6.07324420e+33	0.00000000e+00
13.40	4.61294410e+33	0.00000000e+00
13.50	3.50320073e+33	0.00000000e+00
13.60	2.66000425e+33	0.00000000e+00
13.70	2.01944116e+33	0.00000000e+00
13.80	1.53289597e+33	0.00000000e+00
13.90	1.16339662e+33	0.00000000e+00
14.00	8.82830960e+32	0.00000000e+00
14.10	6.69827442e+32	0.00000000e+00
14.20	5.08141779e+32	0.00000000e+00
14.30	3.85429009e+32	0.00000000e+00
14.40	2.92309106e+32	0.00000000e+00
14.50	2.21656075e+32	0.00000000e+00
14.60	1.68057217e+32	0.00000000e+00
14.70	1.27401864e+32	0.00000000e+00
14.80	9.65686911e+31	0.00000000e+00
14.90	7.31879650e+31	0.00000000e+00
15.00	5.54608579e+31	0.00000000e+00
15.10	4.20221107e+31	0.00000000e+00
15.20	3.18356923e+31	0.00000000e+00
15.30	2.41155209e+31	0.00000000e+00
15.40	1.82652515e+31	0.00000000e+00
15.50	1.38325438e+31	0.00000000e+00
15.60	1.04743376e+31	0.00000000e+00
15.70	7.93048762e+30	0.00000000e+00
15.80	6.00375164e+30	0.00000000e+00
15.90	4.54460063e+30	0.00000000e+00
16.00	3.43969214e+30	0.00000000e+00
16.10	2.60312434e+30	0.00000000e+00
16.20	1.96980112e+30	0.00000000e+00
16.30	1.49039918e+30	0.00000000e+00
16.40	1.12755099e+30	0.00000000e+00
16.50	8.52950344e+29	0.00000000e+00
16.60	6.45157675e+29	0.00000000e+00
16.70	4.87936294e+29	0.00000000e+00
16.80	3.68991269e+29	0.00000000e+00
16.90	2.79013571e+29	0.00000000e+00
17.00	2.10955752e+29	0.00000000e+00
17.10	1.59483137e+29	0.00000000e+00
17.20	1.20558004e+29	0.00000000e+00
17.30	9.11246187e+28	0.00000000e+00
17.40	6.88706706e+28	0.00000000e+00
17.50	5.20465929e+28	0.00000000e+00
17.60	3.93287550e+28	0.00000000e+00
17.70	2.97158718e+28	0.00000000e+00
17.80	2.24505822e+28	0.00000000e+00
17.90	1.69600867e+28	0.00000000e+00
18.00	1.28112147e+28	0.00000000e+00
18.10	9.67642135e+27	0.00000000e+00
18.20	7.30805675e+27	0.00000000e+00
18.30	5.51889530e+27	0.00000000e+00
18.40	4.16740718e+27	0.00000000e+00
18.50	3.14661546e+27	0.00000000e+00
18.60	2.37566809e+27	0.00000000e+00
18.70	1.79346389e+27	0.00000000e+00
18.80	1.35383170e+27	0.00000000e+00
18.90	1.02188562e+27	0.00000000e+00
19.00	7.71268940e+26	0.00000000e+00
19.10	5.82070682e+26	0.00000000e+00
19.20	4.39250547e+26	0.00000000e+00
19.30	3.31448431e+26	0.00000000e+00
19.40	2.50084660e+26	0.00000000e+00
19.50	1.88680025e+26	0.00000000e+00
19.60	1.42341958e+26	0.00000000e+00
19.70	1.07376298e+26	0.00000000e+00
19.80	8.09939795e+25	0.00000000e+00
19.90	6.10894478e+25	0.00000000e+00


#	f17-->o17	tau_cc (hr) = 7.44464000e+00
#	energy (MeV)	capture (MeV^-1 s^-1)	decay (MeV^-1 s^-1)
0.00	0.00000000e+00	0.00000000e+00
0.10	0.00000000e+00	2.11845935e+38
0.20	0.00000000e+00	7.63539807e+38
0.30	0.00000000e+00	1.53866963e+39
0.40	0.00000000e+00	2.43331256e+39
0.50	0.00000000e+00	3.35608902e+39
0.60	0.00000000e+00	4.22825860e+39
0.70	0.00000000e+00	4.98383624e+39
0.80	0.00000000e+00	5.56966558e+39
0.90	0.00000000e+00	5.94535355e+39
1.00	0.00000000e+00	6.08295770e+39
1.10	0.00000000e+00	5.96634561e+39
1.20	0.00000000e+00	5.59006917e+39
1.30	0.00000000e+00	4.95717255e+39
1.40	0.00000000e+00	4.07349736e+39
1.50	0.00000000e+00	2.92563609e+39
1.60	0.00000000e+00	1.30678319e+39
1.70	0.00000000e+00	2.62943323e+36
1.80	0.00000000e+00	1.54741546e+35
1.90	0.00000000e+00	0.00000000e+00
2.00	0.00000000e+00	0.00000000e+00
2.10	0.00000000e+00	0.00000000e+00
2.20	0.00000000e+00	0.00000000e+00
2.30	0.00000000e+00	0.00000000e+00
2.40	0.00000000e+00	0.00000000e+00
2.50	0.00000000e+00	0.00000000e+00
2.60	0.00000000e+00	0.00000000e+00
2.70	6.00741065e+37	0.00000000e+00
2.80	5.47851089e+37	0.00000000e+00
2.90	1.09071238e+38	0.00000000e+00
3.00	1.70250784e+38	0.00000000e+00
3.10	2.35435520e+38	0.00000000e+00
3.20	3.01949814e+38	0.00000000e+00
3.30	3.65469239e+38	0.00000000e+00
3.40	4.20634630e+38	0.00000000e+00
3.50	4.62035957e+38	0.00000000e+00
3.60	4.85511258e+38	0.00000000e+00
3.70	4.89296632e+38	0.00000000e+00
3.80	4.74471178e+38	0.00000000e+00
3.90	4.44488229e+38	0.00000000e+00
4.00	4.04086846e+38	0.00000000e+00
4.10	3.58122654e+38	0.00000000e+00
4.20	3.10732239e+38	0.00000000e+00
4.30	2.64956195e+38	0.00000000e+00
4.40	2.22727180e+38	0.00000000e+00
4.50	1.85057703e+38	0.00000000e+00
4.60	1.52289995e+38	0.00000000e+00
4.70	1.24328220e+38	0.00000000e+00
4.80	1.00821146e+38	0.00000000e+00
4.90	8.12915455e+37	0.00000000e+00
5.00	6.52207637e+37	0.00000000e+00
5.10	5.20998904e+37	0.00000000e+00
5.20	4.14579559e+37	0.00000000e+00
5.30	3.28751585e+37	0.00000000e+00
5.40	2.59868977e+37	0.00000000e+00
5.50	2.04824361e+37	0.00000000e+00
5.60	1.61007146e+37	0.00000000e+00
5.70	1.26248633e+37	0.00000000e+00
5.80	9.87635641e+36	0.00000000e+00
5.90	7.70933802e+36	0.00000000e+00
6.00	6.00540552e+36	0.00000000e+00
6.10	4.66897292e+36	0.00000000e+00
6.20	3.62324925e+36	0.00000000e+00
6.30	2.80680975e+36	0.00000000e+00
6.40	2.17071242e+36	0.00000000e+00
6.50	1.67609978e+36	0.00000000e+00
6.60	1.29222124e+36	0.00000000e+00
6.70	9.94814717e+35	0.00000000e+00
6.80	7.64791023e+35	0.00000000e+00
6.90	5.87169874e+35	0.00000000e+00
7.00	4.50224022e+35	0.00000000e+00
7.10	3.44793912e+35	0.00000000e+00
7.20	2.63740788e+35	0.00000000e+00
7.30	2.01512210e+35	0.00000000e+00
7.40	1.53797840e+35	0.00000000e+00
7.50	1.17257696e+35	0.00000000e+00
7.60	8.93081762e+34	0.00000000e+00
7.70	6.79540692e+34	0.00000000e+00
7.80	5.16569672e+34	0.00000000e+00
7.90	3.92324677e+34	0.00000000e+00
8.00	2.97700100e+34	0.00000000e+00
8.10	2.25705276e+34	0.00000000e+00
8.20	1.70980240e+34	0.00000000e+00
8.30	1.29420529e+34	0.00000000e+00
8.40	9.78868759e+33	0.00000000e+00
8.50	7.39810225e+33	0.00000000e+00
8.60	5.58728462e+33	0.00000000e+00
8.70	4.21672693e+33	0.00000000e+00
8.80	3.18019363e+33	0.00000000e+00
8.90	2.39686660e+33	0.00000000e+00
9.00	1.80532254e+33	0.00000000e+00
9.10	1.35892184e+33	0.00000000e+00
9.20	1.02228184e+33	0.00000000e+00
9.30	7.68582948e+32	0.00000000e+00
9.40	5.77513242e+32	0.00000000e+00
9.50	4.33701710e+32	0.00000000e+00
9.60	3.25525425e+32	0.00000000e+00
9.70	2.44202256e+32	0.00000000e+00
9.80	1.83101342e+32	0.00000000e+00
9.90	1.37219682e+32	0.00000000e+00
10.00	1.02785064e+32	0.00000000e+00
10.10	7.69551729e+31	0.00000000e+00
10.20	5.75897455e+31	0.00000000e+00
10.30	4.30781605e+31	0.00000000e+00
10.40	3.22091109e+31	0.00000000e+00
10.50	2.40721405e+31	0.00000000e+00
10.60	1.79833128e+31	0.00000000e+00
10.70	1.34291393e+31	0.00000000e+00
10.80	1.00243103e+31	0.00000000e+00
10.90	7.47984925e+30	0.00000000e+00
11.00	5.57914044e+30	0.00000000e+00
11.10	4.15988950e+30	0.00000000e+00
11.20	3.10056018e+30	0.00000000e+00
11.30	2.31018164e+30	0.00000000e+00
11.40	1.72069257e+30	0.00000000e+00
11.50	1.28119472e+30	0.00000000e+00
11.60	9.53641410e+29	0.00000000e+00
11.70	7.09604695e+29	0.00000000e+00
11.80	5.27852378e+29	0.00000000e+00
11.90	3.92533068e+29	0.00000000e+00
12.00	2.91817166e+29	0.00000000e+00
12.10	2.16879848e+29	0.00000000e+00
12.20	1.61140328e+29	0.00000000e+00
12.30	1.19693009e+29	0.00000000e+00
12.40	8.88823595e+28	0.00000000e+00
12.50	6.59853155e+28	0.00000000e+00
12.60	4.89741135e+28	0.00000000e+00
12.70	3.63392514e+28	0.00000000e+00
12.80	2.69573994e+28	0.00000000e+00
12.90	1.99928664e+28	0.00000000e+00
13.00	1.48241428e+28	0.00000000e+00
13.10	1.09891448e+28	0.00000000e+00
13.20	8.14442233e+27	0.00000000e+00
13.30	6.03477374e+27	0.00000000e+00
13.40	4.47062469e+27	0.00000000e+00
13.50	3.31119003e+27	0.00000000e+00
13.60	2.45194530e+27	0.00000000e+00
13.70	1.81530787e+27	0.00000000e+00
13.80	1.34370733e+27	0.00000000e+00
13.90	9.94433992e+26	0.00000000e+00
14.00	7.35810646e+26	0.00000000e+00
14.10	5.44348387e+26	0.00000000e+00
14.20	4.02634019e+26	0.00000000e+00
14.30	2.97761480e+26	0.00000000e+00
14.40	2.20167351e+26	0.00000000e+00
14.50	1.62766670e+26	0.00000000e+00
14.60	1.20311731e+26	0.00000000e+00
14.70	8.89164612e+25	0.00000000e+00
14.80	6.57036933e+25	0.00000000e+00
14.90	4.85436604e+25	0.00000000e+00
15.00	3.58601474e+25	0.00000000e+00
15.10	2.64868360e+25	0.00000000e+00
15.20	1.95608720e+25	0.00000000e+00
15.30	1.44440198e+25	0.00000000e+00
15.40	1.06642734e+25	0.00000000e+00
15.50	7.87262190e+24	0.00000000e+00
15.60	5.81104190e+24	0.00000000e+00
15.70	4.28880864e+24	0.00000000e+00
15.80	3.16496506e+24	0.00000000e+00
15.90	2.33535164e+24	0.00000000e+00
16.00	1.72301187e+24	0.00000000e+00
16.10	1.27109607e+24	0.00000000e+00
16.20	9.37614031e+23	0.00000000e+00
16.30	6.91555295e+23	0.00000000e+00
16.40	5.10021253e+23	0.00000000e+00
16.50	3.76105459e+23	0.00000000e+00
16.60	2.77327199e+23	0.00000000e+00
16.70	2.04474046e+23	0.00000000e+00
16.80	1.50746849e+23	0.00000000e+00
16.90	1.11128140e+23	0.00000000e+00
17.00	8.19156739e+22	0.00000000e+00
17.10	6.03779767e+22	0.00000000e+00
17.20	4.45000061e+22	0.00000000e+00
17.30	3.27954033e+22	0.00000000e+00
17.40	2.41678852e+22	0.00000000e+00
17.50	1.78089568e+22	0.00000000e+00
17.60	1.31224176e+22	0.00000000e+00
17.70	9.66865704e+21	0.00000000e+00
17.80	7.12355474e+21	0.00000000e+00
17.90	5.24815973e+21	0.00000000e+00
18.00	3.86632516e+21	0.00000000e+00
18.10	2.84821078e+21	0.00000000e+00
18.20	2.09811679e+21	0.00000000e+00
18.30	1.54551185e+21	0.00000000e+00
18.40	1.13841740e+21	0.00000000e+00
18.50	8.38529979e+20	0.00000000e+00
18.60	6.17625017e+20	0.00000000e+00
18.70	4.54906106e+20	0.00000000e+00
18.80	3.35050749e+20	0.00000000e+00
18.90	2.46770203e+20	0.00000000e+00
19.00	1.81747941e+20	0.00000000e+00
19.10	1.33857371e+20	0.00000000e+00
19.20	9.85853644e+19	0.00000000e+00
19.30	7.26074705e+19	0.00000000e+00
19.40	5.34749320e+19	0.00000000e+00
19.50	3.93840683e+19	0.00000000e+00
19.60	2.90063895e+19	0.00000000e+00
19.70	2.13634248e+19	0.00000000e+00
19.80	1.57345213e+19	0.00000000e+00
19.90	1.15889206e+19	0.00000000e+00


#	f18-->o18	tau_cc (hr) = 7.44464000e+00
#	energy (MeV)	capture (MeV^-1 s^-1)	decay (MeV^-1 s^-1)
0.00	0.00000000e+00	0.00000000e+00
0.10	0.00000000e+00	6.39727694e+45
0.20	0.00000000e+00	1.95796104e+46
0.30	0.00000000e+00	3.18420899e+46
0.40	0.00000000e+00	3.69289401e+46
0.50	0.00000000e+00	2.81989478e+46
0.60	0.00000000e+00	2.02104828e+41
0.70	0.00000000e+00	0.00000000e+00
0.80	0.00000000e+00	0.00000000e+00
0.90	0.00000000e+00	0.00000000e+00
1.00	0.00000000e+00	0.00000000e+00
1.10	0.00000000e+00	0.00000000e+00
1.20	0.00000000e+00	0.00000000e+00
1.30	0.00000000e+00	0.00000000e+00
1.40	0.00000000e+00	0.00000000e+00
1.50	0.00000000e+00	0.00000000e+00
1.60	9.82846191e+44	0.00000000e+00
1.70	3.17699826e+43	0.00000000e+00
1.80	9.74148281e+41	0.00000000e+00
1.90	2.93071321e+41	0.00000000e+00
2.00	1.94171806e+41	0.00000000e+00
2.10	1.26946667e+41	0.00000000e+00
2.20	8.07711500e+40	0.00000000e+00
2.30	5.04391302e+40	0.00000000e+00
2.40	3.10597084e+40	0.00000000e+00
2.50	1.89107229e+40	0.00000000e+00
2.60	1.14035359e+40	0.00000000e+00
2.70	6.81894791e+39	0.00000000e+00
2.80	4.04718308e+39	0.00000000e+00
2.90	2.38611798e+39	0.00000000e+00
3.00	1.39843141e+39	0.00000000e+00
3.10	8.15235448e+38	0.00000000e+00
3.20	4.73027528e+38	0.00000000e+00
3.30	2.73347999e+38	0.00000000e+00
3.40	1.57413607e+38	0.00000000e+00
3.50	9.03972199e+37	0.00000000e+00
3.60	5.18058646e+37	0.00000000e+00
3.70	2.96547962e+37	0.00000000e+00
3.80	1.69733746e+37	0.00000000e+00
3.90	9.72707214e+36	0.00000000e+00
4.00	5.59086922e+36	0.00000000e+00
4.10	3.23001957e+36	0.00000000e+00
4.20	1.88081562e+36	0.00000000e+00
4.30	1.10751101e+36	0.00000000e+00
4.40	6.62046248e+35	0.00000000e+00
4.50	4.03439884e+35	0.00000000e+00
4.60	2.51639902e+35	0.00000000e+00
4.70	1.61190743e+35	0.00000000e+00
4.80	1.06250691e+35	0.00000000e+00
4.90	7.20882221e+34	0.00000000e+00
5.00	5.02651552e+34	0.00000000e+00
5.10	3.59122186e+34	0.00000000e+00
5.20	2.61893654e+34	0.00000000e+00
5.30	1.94156434e+34	0.00000000e+00
5.40	1.45769477e+34	0.00000000e+00
5.50	1.10468500e+34	0.00000000e+00
5.60	8.42757857e+33	0.00000000e+00
5.70	6.45880901e+33	0.00000000e+00
5.80	4.96481625e+33	0.00000000e+00
5.90	3.82341639e+33	0.00000000e+00
6.00	2.94736864e+33	0.00000000e+00
6.10	2.27297163e+33	0.00000000e+00
6.20	1.75287235e+33	0.00000000e+00
6.30	1.35138720e+33	0.00000000e+00
6.40	1.04135698e+33	0.00000000e+00
6.50	8.01965690e+32	0.00000000e+00
6.60	6.17184054e+32	0.00000000e+00
6.70	4.74632140e+32	0.00000000e+00
6.80	3.64732076e+32	0.00000000e+00
6.90	2.80067595e+32	0.00000000e+00
7.00	2.14895010e+32	0.00000000e+00
7.10	1.64766923e+32	0.00000000e+00
7.20	1.26241373e+32	0.00000000e+00
7.30	9.66563712e+31	0.00000000e+00
7.40	7.39547784e+31	0.00000000e+00
7.50	5.65482708e+31	0.00000000e+00
7.60	4.32115896e+31	0.00000000e+00
7.70	3.30004224e+31	0.00000000e+00
7.80	2.51876408e+31	0.00000000e+00
7.90	1.92138505e+31	0.00000000e+00
8.00	1.46490750e+31	0.00000000e+00
8.10	1.11630931e+31	0.00000000e+00
8.20	8.50250351e+30	0.00000000e+00
8.30	6.47300720e+30	0.00000000e+00
8.40	4.92573603e+30	0.00000000e+00
8.50	3.74671289e+30	0.00000000e+00
8.60	2.84873539e+30	0.00000000e+00
8.70	2.16513065e+30	0.00000000e+00
8.80	1.64495493e+30	0.00000000e+00
8.90	1.24930689e+30	0.00000000e+00
9.00	9.48498313e+29	0.00000000e+00
9.10	7.19884976e+29	0.00000000e+00
9.20	5.46204573e+29	0.00000000e+00
9.30	4.14304418e+29	0.00000000e+00
9.40	3.14167962e+29	0.00000000e+00
9.50	2.38170630e+29	0.00000000e+00
9.60	1.80511197e+29	0.00000000e+00
9.70	1.36777662e+29	0.00000000e+00
9.80	1.03615931e+29	0.00000000e+00
9.90	7.84771590e+28	0.00000000e+00
10.00	5.94251460e+28	0.00000000e+00
10.10	4.49896026e+28	0.00000000e+00
10.20	3.40544186e+28	0.00000000e+00
10.30	2.57726172e+28	0.00000000e+00
10.40	1.95016546e+28	0.00000000e+00
10.50	1.47542207e+28	0.00000000e+00
10.60	1.11608378e+28	0.00000000e+00
10.70	8.44144284e+27	0.00000000e+00
10.80	6.38380282e+27	0.00000000e+00
10.90	4.82712460e+27	0.00000000e+00
11.00	3.64961495e+27	0.00000000e+00
11.10	2.75904102e+27	0.00000000e+00
11.20	2.08557009e+27	0.00000000e+00
11.30	1.57633953e+27	0.00000000e+00
11.40	1.19134011e+27	0.00000000e+00
11.50	9.00296067e+26	0.00000000e+00
11.60	6.80300773e+26	0.00000000e+00
11.70	5.14025794e+26	0.00000000e+00
11.80	3.88364390e+26	0.00000000e+00
11.90	2.93404332e+26	0.00000000e+00
12.00	2.21650259e+26	0.00000000e+00
12.10	1.67435073e+26	0.00000000e+00
12.20	1.26474470e+26	0.00000000e+00
12.30	9.55298748e+25	0.00000000e+00
12.40	7.21534361e+25	0.00000000e+00
12.50	5.44951398e+25	0.00000000e+00
12.60	4.11569180e+25	0.00000000e+00
12.70	3.10823275e+25	0.00000000e+00
12.80	2.34731318e+25	0.00000000e+00
12.90	1.77262342e+25	0.00000000e+00
13.00	1.33860027e+25	0.00000000e+00
13.10	1.01082337e+25	0.00000000e+00
13.20	7.63291587e+24	0.00000000e+00
13.30	5.76364631e+24	0.00000000e+00
13.40	4.35207690e+24	0.00000000e+00
13.50	3.28616129e+24	0.00000000e+00
13.60	2.48127492e+24	0.00000000e+00
13.70	1.87350623e+24	0.00000000e+00
13.80	1.41458854e+24	0.00000000e+00
13.90	1.06807148e+24	0.00000000e+00
14.00	8.06428870e+23	0.00000000e+00
14.10	6.08874411e+23	0.00000000e+00
14.20	4.59711712e+23	0.00000000e+00
14.30	3.47088201e+23	0.00000000e+00
14.40	2.62053980e+23	0.00000000e+00
14.50	1.97851091e+23	0.00000000e+00
14.60	1.49376762e+23	0.00000000e+00
14.70	1.12778057e+23	0.00000000e+00
14.80	8.51457931e+22	0.00000000e+00
14.90	6.42833952e+22	0.00000000e+00
