# Data for different parent isotopes separated by empty lines
# Column values are:
# [1] - neutrino energy (MeV)
# [2] - capture luminosity (1/MeV/s)
# [3] - decay luminosity (1/MeV/s)


#	h1-->neut	tau_cc (hr) = 1.6316772e-05
#	energy (MeV)	capture (MeV^-1 s^-1)	decay (MeV^-1 s^-1)
0.00	0.00000000e+00	0.00000000e+00
0.10	1.04678233e+50	0.00000000e+00
0.20	4.23271735e+50	0.00000000e+00
0.30	9.51019914e+50	0.00000000e+00
0.40	1.67055737e+51	0.00000000e+00
0.50	2.55601500e+51	0.00000000e+00
0.60	3.57706934e+51	0.00000000e+00
0.70	4.70233794e+51	0.00000000e+00
0.80	5.90180562e+51	0.00000000e+00
0.90	7.14823622e+51	0.00000000e+00
1.00	8.41771725e+51	0.00000000e+00
1.10	9.68958636e+51	0.00000000e+00
1.20	1.09460020e+52	0.00000000e+00
1.30	1.21713857e+52	0.00000000e+00
1.40	1.33518934e+52	0.00000000e+00
1.50	1.44750137e+52	0.00000000e+00
1.60	1.55293225e+52	0.00000000e+00
1.70	1.65043928e+52	0.00000000e+00
1.80	1.73908239e+52	0.00000000e+00
1.90	1.81803525e+52	0.00000000e+00
2.00	1.88660027e+52	0.00000000e+00
2.10	1.94422352e+52	0.00000000e+00
2.20	1.99050735e+52	0.00000000e+00
2.30	2.02521846e+52	0.00000000e+00
2.40	2.04829095e+52	0.00000000e+00
2.50	2.05982380e+52	0.00000000e+00
2.60	2.06007407e+52	0.00000000e+00
2.70	2.04944550e+52	0.00000000e+00
2.80	2.02847423e+52	0.00000000e+00
2.90	1.99781248e+52	0.00000000e+00
3.00	1.95821061e+52	0.00000000e+00
3.10	1.91049837e+52	0.00000000e+00
3.20	1.85556601e+52	0.00000000e+00
3.30	1.79434537e+52	0.00000000e+00
3.40	1.72779143e+52	0.00000000e+00
3.50	1.65686465e+52	0.00000000e+00
3.60	1.58251436e+52	0.00000000e+00
3.70	1.50566334e+52	0.00000000e+00
3.80	1.42719417e+52	0.00000000e+00
3.90	1.34793726e+52	0.00000000e+00
4.00	1.26866075e+52	0.00000000e+00
4.10	1.19006256e+52	0.00000000e+00
4.20	1.11276453e+52	0.00000000e+00
4.30	1.03730860e+52	0.00000000e+00
4.40	9.64155221e+51	0.00000000e+00
4.50	8.93683827e+51	0.00000000e+00
4.60	8.26194996e+51	0.00000000e+00
4.70	7.61914546e+51	0.00000000e+00
4.80	7.00998775e+51	0.00000000e+00
4.90	6.43540967e+51	0.00000000e+00
5.00	5.89578446e+51	0.00000000e+00
5.10	5.39100103e+51	0.00000000e+00
5.20	4.92053932e+51	0.00000000e+00
5.30	4.48354350e+51	0.00000000e+00
5.40	4.07889103e+51	0.00000000e+00
5.50	3.70525558e+51	0.00000000e+00
5.60	3.36116327e+51	0.00000000e+00
5.70	3.04504168e+51	0.00000000e+00
5.80	2.75526151e+51	0.00000000e+00
5.90	2.49017139e+51	0.00000000e+00
6.00	2.24812607e+51	0.00000000e+00
6.10	2.02750903e+51	0.00000000e+00
6.20	1.82674981e+51	0.00000000e+00
6.30	1.64433706e+51	0.00000000e+00
6.40	1.47882782e+51	0.00000000e+00
6.50	1.32885368e+51	0.00000000e+00
6.60	1.19312455e+51	0.00000000e+00
6.70	1.07043032e+51	0.00000000e+00
6.80	9.59640817e+50	0.00000000e+00
6.90	8.59704788e+50	0.00000000e+00
7.00	7.69647626e+50	0.00000000e+00
7.10	6.88568670e+50	0.00000000e+00
7.20	6.15637861e+50	0.00000000e+00
7.30	5.50092095e+50	0.00000000e+00
7.40	4.91231491e+50	0.00000000e+00
7.50	4.38415408e+50	0.00000000e+00
7.60	3.91058602e+50	0.00000000e+00
7.70	3.48627348e+50	0.00000000e+00
7.80	3.10635703e+50	0.00000000e+00
7.90	2.76641904e+50	0.00000000e+00
8.00	2.46244909e+50	0.00000000e+00
8.10	2.19081128e+50	0.00000000e+00
8.20	1.94821339e+50	0.00000000e+00
8.30	1.73167782e+50	0.00000000e+00
8.40	1.53851458e+50	0.00000000e+00
8.50	1.36629602e+50	0.00000000e+00
8.60	1.21283345e+50	0.00000000e+00
8.70	1.07615546e+50	0.00000000e+00
8.80	9.54488081e+49	0.00000000e+00
8.90	8.46236266e+49	0.00000000e+00
9.00	7.49967087e+49	0.00000000e+00
9.10	6.64394355e+49	0.00000000e+00
9.20	5.88364344e+49	0.00000000e+00
9.30	5.20843077e+49	0.00000000e+00
9.40	4.60904427e+49	0.00000000e+00
9.50	4.07719513e+49	0.00000000e+00
9.60	3.60546962e+49	0.00000000e+00
9.70	3.18724096e+49	0.00000000e+00
9.80	2.81658958e+49	0.00000000e+00
9.90	2.48823077e+49	0.00000000e+00
10.00	2.19744937e+49	0.00000000e+00
10.10	1.94004083e+49	0.00000000e+00
10.20	1.71225796e+49	0.00000000e+00
10.30	1.51076295e+49	0.00000000e+00
10.40	1.33258424e+49	0.00000000e+00
10.50	1.17507772e+49	0.00000000e+00
10.60	1.03589168e+49	0.00000000e+00
10.70	9.12935628e+48	0.00000000e+00
10.80	8.04352022e+48	0.00000000e+00
10.90	7.08491206e+48	0.00000000e+00
11.00	6.23888673e+48	0.00000000e+00
11.10	5.49244928e+48	0.00000000e+00
11.20	4.83407364e+48	0.00000000e+00
11.30	4.25354074e+48	0.00000000e+00
11.40	3.74179415e+48	0.00000000e+00
11.50	3.29081097e+48	0.00000000e+00
11.60	2.89348658e+48	0.00000000e+00
11.70	2.54353195e+48	0.00000000e+00
11.80	2.23538210e+48	0.00000000e+00
11.90	1.96411449e+48	0.00000000e+00
12.00	1.72537647e+48	0.00000000e+00
12.10	1.51532056e+48	0.00000000e+00
12.20	1.33054707e+48	0.00000000e+00
12.30	1.16805291e+48	0.00000000e+00
12.40	1.02518624e+48	0.00000000e+00
12.50	8.99606104e+47	0.00000000e+00
12.60	7.89246697e+47	0.00000000e+00
12.70	6.92285496e+47	0.00000000e+00
12.80	6.07115173e+47	0.00000000e+00
12.90	5.32318545e+47	0.00000000e+00
13.00	4.66646514e+47	0.00000000e+00
13.10	4.08998381e+47	0.00000000e+00
13.20	3.58404523e+47	0.00000000e+00
13.30	3.14011007e+47	0.00000000e+00
13.40	2.75065994e+47	0.00000000e+00
13.50	2.40907707e+47	0.00000000e+00
13.60	2.10953794e+47	0.00000000e+00
13.70	1.84691927e+47	0.00000000e+00
13.80	1.61671497e+47	0.00000000e+00
13.90	1.41496277e+47	0.00000000e+00
14.00	1.23817940e+47	0.00000000e+00
14.10	1.08330348e+47	0.00000000e+00
14.20	9.47644956e+46	0.00000000e+00
14.30	8.28840738e+46	0.00000000e+00
14.40	7.24815306e+46	0.00000000e+00
14.50	6.33746195e+46	0.00000000e+00
14.60	5.54033499e+46	0.00000000e+00
14.70	4.84272926e+46	0.00000000e+00
14.80	4.23232215e+46	0.00000000e+00
14.90	3.69830272e+46	0.00000000e+00
15.00	3.23118800e+46	0.00000000e+00
15.10	2.82266177e+46	0.00000000e+00
15.20	2.46543231e+46	0.00000000e+00
15.30	2.15310764e+46	0.00000000e+00
15.40	1.88008538e+46	0.00000000e+00
15.50	1.64145632e+46	0.00000000e+00
15.60	1.43291934e+46	0.00000000e+00
15.70	1.25070690e+46	0.00000000e+00
15.80	1.09151934e+46	0.00000000e+00
15.90	9.52467371e+45	0.00000000e+00
16.00	8.31021480e+45	0.00000000e+00
16.10	7.24967498e+45	0.00000000e+00
16.20	6.32367618e+45	0.00000000e+00
16.30	5.51526216e+45	0.00000000e+00
16.40	4.80959809e+45	0.00000000e+00
16.50	4.19370729e+45	0.00000000e+00
16.60	3.65624062e+45	0.00000000e+00
16.70	3.18727365e+45	0.00000000e+00
16.80	2.77812931e+45	0.00000000e+00
16.90	2.42122230e+45	0.00000000e+00
17.00	2.10992274e+45	0.00000000e+00
17.10	1.83843671e+45	0.00000000e+00
17.20	1.60170158e+45	0.00000000e+00
17.30	1.39529446e+45	0.00000000e+00
17.40	1.21535182e+45	0.00000000e+00
17.50	1.05849927e+45	0.00000000e+00
17.60	9.21790084e+44	0.00000000e+00
17.70	8.02651344e+44	0.00000000e+00
17.80	6.98836807e+44	0.00000000e+00
17.90	6.08385754e+44	0.00000000e+00
18.00	5.29586876e+44	0.00000000e+00
18.10	4.60946786e+44	0.00000000e+00
18.20	4.01162403e+44	0.00000000e+00
18.30	3.49096894e+44	0.00000000e+00
18.40	3.03758564e+44	0.00000000e+00
18.50	2.64282439e+44	0.00000000e+00
18.60	2.29914177e+44	0.00000000e+00
18.70	1.99995999e+44	0.00000000e+00
18.80	1.73954391e+44	0.00000000e+00
18.90	1.51289383e+44	0.00000000e+00
19.00	1.31565152e+44	0.00000000e+00
19.10	1.14401858e+44	0.00000000e+00
19.20	9.94684768e+43	0.00000000e+00
19.30	8.64765679e+43	0.00000000e+00
19.40	7.51748180e+43	0.00000000e+00
19.50	6.53442976e+43	0.00000000e+00
19.60	5.67942985e+43	0.00000000e+00
19.70	4.93587207e+43	0.00000000e+00
19.80	4.28929119e+43	0.00000000e+00
19.90	3.72709113e+43	0.00000000e+00


#	f17-->o17	tau_cc (hr) = 1.63167715e-05
#	energy (MeV)	capture (MeV^-1 s^-1)	decay (MeV^-1 s^-1)
0.00	0.00000000e+00	0.00000000e+00
0.10	0.00000000e+00	2.01958332e+41
0.20	0.00000000e+00	6.91261306e+41
0.30	0.00000000e+00	1.31644379e+42
0.40	0.00000000e+00	1.95729509e+42
0.50	0.00000000e+00	2.52424350e+42
0.60	0.00000000e+00	2.95677452e+42
0.70	0.00000000e+00	3.22087080e+42
0.80	0.00000000e+00	3.30561139e+42
0.90	0.00000000e+00	3.21916111e+42
1.00	0.00000000e+00	2.98438584e+42
1.10	0.00000000e+00	2.63426545e+42
1.20	0.00000000e+00	2.20721572e+42
1.30	0.00000000e+00	1.74233123e+42
1.40	0.00000000e+00	1.27455526e+42
1.50	0.00000000e+00	8.29181103e+41
1.60	0.00000000e+00	3.88411149e+41
1.70	0.00000000e+00	9.46325866e+40
1.80	0.00000000e+00	1.78298376e+40
1.90	0.00000000e+00	0.00000000e+00
2.00	0.00000000e+00	0.00000000e+00
2.10	3.98177732e+36	0.00000000e+00
2.20	6.67433317e+37	0.00000000e+00
2.30	5.83987754e+38	0.00000000e+00
2.40	3.83255650e+39	0.00000000e+00
2.50	2.01900298e+40	0.00000000e+00
2.60	9.36678876e+40	0.00000000e+00
2.70	1.65673830e+42	0.00000000e+00
2.80	4.75429291e+42	0.00000000e+00
2.90	8.06571812e+42	0.00000000e+00
3.00	1.16911008e+43	0.00000000e+00
3.10	1.56257460e+43	0.00000000e+00
3.20	1.98208117e+43	0.00000000e+00
3.30	2.41852160e+43	0.00000000e+00
3.40	2.86103980e+43	0.00000000e+00
3.50	3.29777720e+43	0.00000000e+00
3.60	3.71644469e+43	0.00000000e+00
3.70	4.10496581e+43	0.00000000e+00
3.80	4.45221561e+43	0.00000000e+00
3.90	4.74876956e+43	0.00000000e+00
4.00	4.98753881e+43	0.00000000e+00
4.10	5.16418105e+43	0.00000000e+00
4.20	5.27722465e+43	0.00000000e+00
4.30	5.32790694e+43	0.00000000e+00
4.40	5.31977934e+43	0.00000000e+00
4.50	5.25816888e+43	0.00000000e+00
4.60	5.14958661e+43	0.00000000e+00
4.70	5.00116626e+43	0.00000000e+00
4.80	4.82018522e+43	0.00000000e+00
4.90	4.61369680e+43	0.00000000e+00
5.00	4.38827514e+43	0.00000000e+00
5.10	4.14986147e+43	0.00000000e+00
5.20	3.90368976e+43	0.00000000e+00
5.30	3.65427167e+43	0.00000000e+00
5.40	3.40541741e+43	0.00000000e+00
5.50	3.16028152e+43	0.00000000e+00
5.60	2.92141916e+43	0.00000000e+00
5.70	2.69084604e+43	0.00000000e+00
5.80	2.47010059e+43	0.00000000e+00
5.90	2.26030256e+43	0.00000000e+00
6.00	2.06220922e+43	0.00000000e+00
6.10	1.87626793e+43	0.00000000e+00
6.20	1.70266485e+43	0.00000000e+00
6.30	1.54136962e+43	0.00000000e+00
6.40	1.39217608e+43	0.00000000e+00
6.50	1.25473878e+43	0.00000000e+00
6.60	1.12860543e+43	0.00000000e+00
6.70	1.01324512e+43	0.00000000e+00
6.80	9.08072750e+42	0.00000000e+00
6.90	8.12469564e+42	0.00000000e+00
7.00	7.25800285e+42	0.00000000e+00
7.10	6.47427010e+42	0.00000000e+00
7.20	5.76720330e+42	0.00000000e+00
7.30	5.13067879e+42	0.00000000e+00
7.40	4.55880787e+42	0.00000000e+00
7.50	4.04598312e+42	0.00000000e+00
7.60	3.58690887e+42	0.00000000e+00
7.70	3.17662054e+42	0.00000000e+00
7.80	2.81049204e+42	0.00000000e+00
7.90	2.48423702e+42	0.00000000e+00
8.00	2.19390291e+42	0.00000000e+00
8.10	1.93586071e+42	0.00000000e+00
8.20	1.70679141e+42	0.00000000e+00
8.30	1.50367004e+42	0.00000000e+00
8.40	1.32374829e+42	0.00000000e+00
8.50	1.16453639e+42	0.00000000e+00
8.60	1.02378462e+42	0.00000000e+00
8.70	8.99465048e+41	0.00000000e+00
8.80	7.89753629e+41	0.00000000e+00
8.90	6.93013085e+41	0.00000000e+00
9.00	6.07776434e+41	0.00000000e+00
9.10	5.32731627e+41	0.00000000e+00
9.20	4.66707029e+41	0.00000000e+00
9.30	4.08658002e+41	0.00000000e+00
9.40	3.57654394e+41	0.00000000e+00
9.50	3.12869131e+41	0.00000000e+00
9.60	2.73567652e+41	0.00000000e+00
9.70	2.39098365e+41	0.00000000e+00
9.80	2.08883880e+41	0.00000000e+00
9.90	1.82413096e+41	0.00000000e+00
10.00	1.59234037e+41	0.00000000e+00
10.10	1.38947386e+41	0.00000000e+00
10.20	1.21200654e+41	0.00000000e+00
10.30	1.05682955e+41	0.00000000e+00
10.40	9.21203154e+40	0.00000000e+00
10.50	8.02714783e+40	0.00000000e+00
10.60	6.99241459e+40	0.00000000e+00
10.70	6.08916371e+40	0.00000000e+00
10.80	5.30099070e+40	0.00000000e+00
10.90	4.61348962e+40	0.00000000e+00
11.00	4.01401683e+40	0.00000000e+00
11.10	3.49148236e+40	0.00000000e+00
11.20	3.03616447e+40	0.00000000e+00
11.30	2.63954540e+40	0.00000000e+00
11.40	2.29416616e+40	0.00000000e+00
11.50	1.99349838e+40	0.00000000e+00
11.60	1.73183073e+40	0.00000000e+00
11.70	1.50416920e+40	0.00000000e+00
11.80	1.30614892e+40	0.00000000e+00
11.90	1.13395650e+40	0.00000000e+00
12.00	9.84261877e+39	0.00000000e+00
12.10	8.54158066e+39	0.00000000e+00
12.20	7.41108570e+39	0.00000000e+00
12.30	6.42900863e+39	0.00000000e+00
12.40	5.57605798e+39	0.00000000e+00
12.50	4.83541870e+39	0.00000000e+00
12.60	4.19243908e+39	0.00000000e+00
12.70	3.63435708e+39	0.00000000e+00
12.80	3.15005971e+39	0.00000000e+00
12.90	2.72987323e+39	0.00000000e+00
13.00	2.36537904e+39	0.00000000e+00
13.10	2.04925302e+39	0.00000000e+00
13.20	1.77512502e+39	0.00000000e+00
13.30	1.53745604e+39	0.00000000e+00
13.40	1.33143109e+39	0.00000000e+00
13.50	1.15286558e+39	0.00000000e+00
13.60	9.98123679e+38	0.00000000e+00
13.70	8.64047076e+38	0.00000000e+00
13.80	7.47892919e+38	0.00000000e+00
13.90	6.47279663e+38	0.00000000e+00
14.00	5.60139938e+38	0.00000000e+00
14.10	4.84679452e+38	0.00000000e+00
14.20	4.19341245e+38	0.00000000e+00
14.30	3.62774567e+38	0.00000000e+00
14.40	3.13807761e+38	0.00000000e+00
14.50	2.71424730e+38	0.00000000e+00
14.60	2.34744416e+38	0.00000000e+00
14.70	2.03002998e+38	0.00000000e+00
14.80	1.75538398e+38	0.00000000e+00
14.90	1.51776809e+38	0.00000000e+00
15.00	1.31221023e+38	0.00000000e+00
15.10	1.13440250e+38	0.00000000e+00
15.20	9.80613156e+37	0.00000000e+00
15.30	8.47609888e+37	0.00000000e+00
15.40	7.32593460e+37	0.00000000e+00
15.50	6.33139914e+37	0.00000000e+00
15.60	5.47150601e+37	0.00000000e+00
15.70	4.72808698e+37	0.00000000e+00
15.80	4.08541567e+37	0.00000000e+00
15.90	3.52988100e+37	0.00000000e+00
16.00	3.04970398e+37	0.00000000e+00
16.10	2.63469198e+37	0.00000000e+00
16.20	2.27602634e+37	0.00000000e+00
16.30	1.96607773e+37	0.00000000e+00
16.40	1.69824650e+37	0.00000000e+00
16.50	1.46682418e+37	0.00000000e+00
16.60	1.26687364e+37	0.00000000e+00
16.70	1.09412532e+37	0.00000000e+00
16.80	9.44887121e+36	0.00000000e+00
16.90	8.15966745e+36	0.00000000e+00
17.00	7.04604133e+36	0.00000000e+00
17.10	6.08413206e+36	0.00000000e+00
17.20	5.25331331e+36	0.00000000e+00
17.30	4.53575594e+36	0.00000000e+00
17.40	3.91604993e+36	0.00000000e+00
17.50	3.38087705e+36	0.00000000e+00
17.60	2.91872768e+36	0.00000000e+00
17.70	2.51965591e+36	0.00000000e+00
17.80	2.17506754e+36	0.00000000e+00
17.90	1.87753695e+36	0.00000000e+00
18.00	1.62064851e+36	0.00000000e+00
18.10	1.39885961e+36	0.00000000e+00
18.20	1.20738205e+36	0.00000000e+00
18.30	1.04207965e+36	0.00000000e+00
18.40	8.99379606e+35	0.00000000e+00
18.50	7.76195956e+35	0.00000000e+00
18.60	6.69863360e+35	0.00000000e+00
18.70	5.78079874e+35	0.00000000e+00
18.80	4.98857516e+35	0.00000000e+00
18.90	4.30479506e+35	0.00000000e+00
19.00	3.71463352e+35	0.00000000e+00
19.10	3.20528929e+35	0.00000000e+00
19.20	2.76570889e+35	0.00000000e+00
19.30	2.38634864e+35	0.00000000e+00
19.40	2.05896854e+35	0.00000000e+00
19.50	1.77645462e+35	0.00000000e+00
19.60	1.53266517e+35	0.00000000e+00
19.70	1.32229816e+35	0.00000000e+00
19.80	1.14077663e+35	0.00000000e+00
19.90	9.84149558e+34	0.00000000e+00


#	f18-->o18	tau_cc (hr) = 1.63167715e-05
#	energy (MeV)	capture (MeV^-1 s^-1)	decay (MeV^-1 s^-1)
0.00	0.00000000e+00	0.00000000e+00
0.10	0.00000000e+00	1.08061163e+45
0.20	0.00000000e+00	3.30822545e+45
0.30	0.00000000e+00	5.38260787e+45
0.40	0.00000000e+00	6.24844952e+45
0.50	0.00000000e+00	4.79157858e+45
0.60	0.00000000e+00	4.45143830e+40
0.70	0.00000000e+00	0.00000000e+00
0.80	0.00000000e+00	0.00000000e+00
0.90	7.34591107e+37	0.00000000e+00
1.00	7.37211378e+38	0.00000000e+00
1.10	2.99900110e+39	0.00000000e+00
1.20	1.02408578e+40	0.00000000e+00
1.30	2.76538291e+40	0.00000000e+00
1.40	6.53787860e+40	0.00000000e+00
1.50	1.88405420e+41	0.00000000e+00
1.60	1.15439612e+44	0.00000000e+00
1.70	2.23648068e+42	0.00000000e+00
1.80	1.19087374e+42	0.00000000e+00
1.90	1.63138805e+42	0.00000000e+00
2.00	2.18597375e+42	0.00000000e+00
2.10	2.84247664e+42	0.00000000e+00
2.20	3.59668578e+42	0.00000000e+00
2.30	4.44076103e+42	0.00000000e+00
2.40	5.36299541e+42	0.00000000e+00
2.50	6.34807395e+42	0.00000000e+00
2.60	7.37779609e+42	0.00000000e+00
2.70	8.43215260e+42	0.00000000e+00
2.80	9.49057612e+42	0.00000000e+00
2.90	1.05331601e+43	0.00000000e+00
3.00	1.15416586e+43	0.00000000e+00
3.10	1.25001408e+43	0.00000000e+00
3.20	1.33952661e+43	0.00000000e+00
3.30	1.42162246e+43	0.00000000e+00
3.40	1.49544546e+43	0.00000000e+00
3.50	1.56032651e+43	0.00000000e+00
3.60	1.61574804e+43	0.00000000e+00
3.70	1.66131842e+43	0.00000000e+00
3.80	1.69675921e+43	0.00000000e+00
3.90	1.72190448e+43	0.00000000e+00
4.00	1.73670831e+43	0.00000000e+00
4.10	1.74125552e+43	0.00000000e+00
4.20	1.73577095e+43	0.00000000e+00
4.30	1.72062373e+43	0.00000000e+00
4.40	1.69632429e+43	0.00000000e+00
4.50	1.66351399e+43	0.00000000e+00
4.60	1.62294775e+43	0.00000000e+00
4.70	1.57547128e+43	0.00000000e+00
4.80	1.52199560e+43	0.00000000e+00
4.90	1.46346995e+43	0.00000000e+00
5.00	1.40085569e+43	0.00000000e+00
5.10	1.33510222e+43	0.00000000e+00
5.20	1.26712604e+43	0.00000000e+00
5.30	1.19779325e+43	0.00000000e+00
5.40	1.12790606e+43	0.00000000e+00
5.50	1.05819274e+43	0.00000000e+00
5.60	9.89301193e+42	0.00000000e+00
5.70	9.21795494e+42	0.00000000e+00
5.80	8.56155127e+42	0.00000000e+00
5.90	7.92776530e+42	0.00000000e+00
6.00	7.31976439e+42	0.00000000e+00
6.10	6.73996690e+42	0.00000000e+00
6.20	6.19010142e+42	0.00000000e+00
6.30	5.67127331e+42	0.00000000e+00
6.40	5.18403500e+42	0.00000000e+00
6.50	4.72845861e+42	0.00000000e+00
6.60	4.30420759e+42	0.00000000e+00
6.70	3.91060576e+42	0.00000000e+00
6.80	3.54670265e+42	0.00000000e+00
6.90	3.21133357e+42	0.00000000e+00
7.00	2.90317423e+42	0.00000000e+00
7.10	2.62078878e+42	0.00000000e+00
7.20	2.36267187e+42	0.00000000e+00
7.30	2.12728429e+42	0.00000000e+00
7.40	1.91308270e+42	0.00000000e+00
7.50	1.71854363e+42	0.00000000e+00
7.60	1.54218264e+42	0.00000000e+00
7.70	1.38256883e+42	0.00000000e+00
7.80	1.23833542e+42	0.00000000e+00
7.90	1.10818705e+42	0.00000000e+00
8.00	9.90904307e+41	0.00000000e+00
8.10	8.85345909e+41	0.00000000e+00
8.20	7.90449161e+41	0.00000000e+00
8.30	7.05228948e+41	0.00000000e+00
8.40	6.28775642e+41	0.00000000e+00
8.50	5.60252248e+41	0.00000000e+00
8.60	4.98890966e+41	0.00000000e+00
8.70	4.43989445e+41	0.00000000e+00
8.80	3.94906763e+41	0.00000000e+00
8.90	3.51059380e+41	0.00000000e+00
9.00	3.11917069e+41	0.00000000e+00
9.10	2.76998924e+41	0.00000000e+00
9.20	2.45869512e+41	0.00000000e+00
9.30	2.18135174e+41	0.00000000e+00
9.40	1.93440536e+41	0.00000000e+00
9.50	1.71465180e+41	0.00000000e+00
9.60	1.51920590e+41	0.00000000e+00
9.70	1.34547244e+41	0.00000000e+00
9.80	1.19111962e+41	0.00000000e+00
9.90	1.05405443e+41	0.00000000e+00
10.00	9.32399862e+40	0.00000000e+00
10.10	8.24474226e+40	0.00000000e+00
10.20	7.28772002e+40	0.00000000e+00
10.30	6.43946540e+40	0.00000000e+00
10.40	5.68794167e+40	0.00000000e+00
10.50	5.02239803e+40	0.00000000e+00
10.60	4.43323896e+40	0.00000000e+00
10.70	3.91190575e+40	0.00000000e+00
10.80	3.45076938e+40	0.00000000e+00
10.90	3.04303374e+40	0.00000000e+00
11.00	2.68264829e+40	0.00000000e+00
11.10	2.36422931e+40	0.00000000e+00
11.20	2.08298912e+40	0.00000000e+00
11.30	1.83467239e+40	0.00000000e+00
11.40	1.61549882e+40	0.00000000e+00
11.50	1.42211186e+40	0.00000000e+00
11.60	1.25153268e+40	0.00000000e+00
11.70	1.10111886e+40	0.00000000e+00
11.80	9.68527507e+39	0.00000000e+00
11.90	8.51682225e+39	0.00000000e+00
12.00	7.48743601e+39	0.00000000e+00
12.10	6.58082853e+39	0.00000000e+00
12.20	5.78258294e+39	0.00000000e+00
12.30	5.07994361e+39	0.00000000e+00
12.40	4.46162910e+39	0.00000000e+00
12.50	3.91766563e+39	0.00000000e+00
12.60	3.43923872e+39	0.00000000e+00
12.70	3.01856142e+39	0.00000000e+00
12.80	2.64875681e+39	0.00000000e+00
12.90	2.32375385e+39	0.00000000e+00
13.00	2.03819475e+39	0.00000000e+00
13.10	1.78735273e+39	0.00000000e+00
13.20	1.56705906e+39	0.00000000e+00
13.30	1.37363834e+39	0.00000000e+00
13.40	1.20385115e+39	0.00000000e+00
13.50	1.05484314e+39	0.00000000e+00
13.60	9.24100116e+38	0.00000000e+00
13.70	8.09408024e+38	0.00000000e+00
13.80	7.08817780e+38	0.00000000e+00
13.90	6.20613976e+38	0.00000000e+00
14.00	5.43287313e+38	0.00000000e+00
14.10	4.75510182e+38	0.00000000e+00
14.20	4.16115102e+38	0.00000000e+00
14.30	3.64075677e+38	0.00000000e+00
14.40	3.18489763e+38	0.00000000e+00
14.50	2.78564649e+38	0.00000000e+00
14.60	2.43603930e+38	0.00000000e+00
14.70	2.12995960e+38	0.00000000e+00
14.80	1.86203672e+38	0.00000000e+00
14.90	1.62755585e+38	0.00000000e+00
