# Data for different parent isotopes separated by empty lines
# Column values are:
# [1] - neutrino energy (MeV)
# [2] - capture luminosity (1/MeV/s)
# [3] - decay luminosity (1/MeV/s)


#	h1-->neut	tau_cc (hr) = 1.482
#	energy (MeV)	capture (MeV^-1 s^-1)	decay (MeV^-1 s^-1)
0.00	0.00000000e+00	0.00000000e+00
0.10	2.06367840e+47	0.00000000e+00
0.20	7.46146850e+47	0.00000000e+00
0.30	1.48998524e+48	0.00000000e+00
0.40	2.31418327e+48	0.00000000e+00
0.50	3.11681959e+48	0.00000000e+00
0.60	3.82467597e+48	0.00000000e+00
0.70	4.39326960e+48	0.00000000e+00
0.80	4.80277264e+48	0.00000000e+00
0.90	5.05218030e+48	0.00000000e+00
1.00	5.15334312e+48	0.00000000e+00
1.10	5.12576139e+48	0.00000000e+00
1.20	4.99250401e+48	0.00000000e+00
1.30	4.77727738e+48	0.00000000e+00
1.40	4.50249968e+48	0.00000000e+00
1.50	4.18817214e+48	0.00000000e+00
1.60	3.85133712e+48	0.00000000e+00
1.70	3.50594140e+48	0.00000000e+00
1.80	3.16296002e+48	0.00000000e+00
1.90	2.83067218e+48	0.00000000e+00
2.00	2.51501284e+48	0.00000000e+00
2.10	2.21994787e+48	0.00000000e+00
2.20	1.94783925e+48	0.00000000e+00
2.30	1.69978157e+48	0.00000000e+00
2.40	1.47589871e+48	0.00000000e+00
2.50	1.27559755e+48	0.00000000e+00
2.60	1.09777915e+48	0.00000000e+00
2.70	9.41009882e+47	0.00000000e+00
2.80	8.03657002e+47	0.00000000e+00
2.90	6.83993184e+47	0.00000000e+00
3.00	5.80274998e+47	0.00000000e+00
3.10	4.90799751e+47	0.00000000e+00
3.20	4.13944863e+47	0.00000000e+00
3.30	3.48193442e+47	0.00000000e+00
3.40	2.92149157e+47	0.00000000e+00
3.50	2.44542954e+47	0.00000000e+00
3.60	2.04233869e+47	0.00000000e+00
3.70	1.70205546e+47	0.00000000e+00
3.80	1.41559925e+47	0.00000000e+00
3.90	1.17509081e+47	0.00000000e+00
4.00	9.73660761e+46	0.00000000e+00
4.10	8.05353986e+46	0.00000000e+00
4.20	6.65034294e+46	0.00000000e+00
4.30	5.48292327e+46	0.00000000e+00
4.40	4.51358728e+46	0.00000000e+00
4.50	3.71023796e+46	0.00000000e+00
4.60	3.04564163e+46	0.00000000e+00
4.70	2.49676802e+46	0.00000000e+00
4.80	2.04420126e+46	0.00000000e+00
4.90	1.67161968e+46	0.00000000e+00
5.00	1.36533961e+46	0.00000000e+00
5.10	1.11391771e+46	0.00000000e+00
5.20	9.07806846e+45	0.00000000e+00
5.30	7.39059511e+45	0.00000000e+00
5.40	6.01073688e+45	0.00000000e+00
5.50	4.88375898e+45	0.00000000e+00
5.60	3.96436794e+45	0.00000000e+00
5.70	3.21514947e+45	0.00000000e+00
5.80	2.60525004e+45	0.00000000e+00
5.90	2.10926691e+45	0.00000000e+00
6.00	1.70631735e+45	0.00000000e+00
6.10	1.37925908e+45	0.00000000e+00
6.20	1.11404001e+45	0.00000000e+00
6.30	8.99156301e+44	0.00000000e+00
6.40	7.25202279e+44	0.00000000e+00
6.50	5.84497067e+44	0.00000000e+00
6.60	4.70775579e+44	0.00000000e+00
6.70	3.78933265e+44	0.00000000e+00
6.80	3.04815589e+44	0.00000000e+00
6.90	2.45044699e+44	0.00000000e+00
7.00	1.96876945e+44	0.00000000e+00
7.10	1.58085931e+44	0.00000000e+00
7.20	1.26866653e+44	0.00000000e+00
7.30	1.01757034e+44	0.00000000e+00
7.40	8.15737874e+43	0.00000000e+00
7.50	6.53600393e+43	0.00000000e+00
7.60	5.23426259e+43	0.00000000e+00
7.70	4.18972974e+43	0.00000000e+00
7.80	3.35204148e+43	0.00000000e+00
7.90	2.68059366e+43	0.00000000e+00
8.00	2.14267337e+43	0.00000000e+00
8.10	1.71194303e+43	0.00000000e+00
8.20	1.36721171e+43	0.00000000e+00
8.30	1.09144026e+43	0.00000000e+00
8.40	8.70936206e+42	0.00000000e+00
8.50	6.94703034e+42	0.00000000e+00
8.60	5.53914383e+42	0.00000000e+00
8.70	4.41489816e+42	0.00000000e+00
8.80	3.51752496e+42	0.00000000e+00
8.90	2.80153379e+42	0.00000000e+00
9.00	2.23049019e+42	0.00000000e+00
9.10	1.77522755e+42	0.00000000e+00
9.20	1.41240863e+42	0.00000000e+00
9.30	1.12336934e+42	0.00000000e+00
9.40	8.93189905e+41	0.00000000e+00
9.50	7.09948951e+41	0.00000000e+00
9.60	5.64125165e+41	0.00000000e+00
9.70	4.48117305e+41	0.00000000e+00
9.80	3.55859548e+41	0.00000000e+00
9.90	2.82513289e+41	0.00000000e+00
10.00	2.24220386e+41	0.00000000e+00
10.10	1.77905674e+41	0.00000000e+00
10.20	1.41118980e+41	0.00000000e+00
10.30	1.11908837e+41	0.00000000e+00
10.40	8.87215159e+40	0.00000000e+00
10.50	7.03204095e+40	0.00000000e+00
10.60	5.57216374e+40	0.00000000e+00
10.70	4.41426610e+40	0.00000000e+00
10.80	3.49612823e+40	0.00000000e+00
10.90	2.76829528e+40	0.00000000e+00
11.00	2.19147048e+40	0.00000000e+00
11.10	1.73443838e+40	0.00000000e+00
11.20	1.37241040e+40	0.00000000e+00
11.30	1.08570739e+40	0.00000000e+00
11.40	8.58710935e+39	0.00000000e+00
11.50	6.79028953e+39	0.00000000e+00
11.60	5.36831920e+39	0.00000000e+00
11.70	4.24325104e+39	0.00000000e+00
11.80	3.35328938e+39	0.00000000e+00
11.90	2.64945643e+39	0.00000000e+00
12.00	2.09294324e+39	0.00000000e+00
12.10	1.65300624e+39	0.00000000e+00
12.20	1.30529691e+39	0.00000000e+00
12.30	1.03053628e+39	0.00000000e+00
12.40	8.13462912e+38	0.00000000e+00
12.50	6.41998530e+38	0.00000000e+00
12.60	5.06586245e+38	0.00000000e+00
12.70	3.99665888e+38	0.00000000e+00
12.80	3.15258144e+38	0.00000000e+00
12.90	2.48635011e+38	0.00000000e+00
13.00	1.96058708e+38	0.00000000e+00
13.10	1.54574915e+38	0.00000000e+00
13.20	1.21849016e+38	0.00000000e+00
13.30	9.60364805e+37	0.00000000e+00
13.40	7.56802787e+37	0.00000000e+00
13.50	5.96296828e+37	0.00000000e+00
13.60	4.69760592e+37	0.00000000e+00
13.70	3.70020642e+37	0.00000000e+00
13.80	2.91414784e+37	0.00000000e+00
13.90	2.29474489e+37	0.00000000e+00
14.00	1.80673874e+37	0.00000000e+00
14.10	1.42231346e+37	0.00000000e+00
14.20	1.11952860e+37	0.00000000e+00
14.30	8.81081006e+36	0.00000000e+00
14.40	6.93326962e+36	0.00000000e+00
14.50	5.45510089e+36	0.00000000e+00
14.60	4.29151596e+36	0.00000000e+00
14.70	3.37569129e+36	0.00000000e+00
14.80	2.65496950e+36	0.00000000e+00
14.90	2.08786268e+36	0.00000000e+00
15.00	1.64168811e+36	0.00000000e+00
15.10	1.29070334e+36	0.00000000e+00
15.20	1.01463535e+36	0.00000000e+00
15.30	7.97520807e+35	0.00000000e+00
15.40	6.26791672e+35	0.00000000e+00
15.50	4.92554448e+35	0.00000000e+00
15.60	3.87022110e+35	0.00000000e+00
15.70	3.04066413e+35	0.00000000e+00
15.80	2.38865212e+35	0.00000000e+00
15.90	1.87624594e+35	0.00000000e+00
16.00	1.47360008e+35	0.00000000e+00
16.10	1.15723916e+35	0.00000000e+00
16.20	9.08700602e+34	0.00000000e+00
16.30	7.13466008e+34	0.00000000e+00
16.40	5.60120030e+34	0.00000000e+00
16.50	4.39688214e+34	0.00000000e+00
16.60	3.45115922e+34	0.00000000e+00
16.70	2.70858298e+34	0.00000000e+00
16.80	2.12557683e+34	0.00000000e+00
16.90	1.66789806e+34	0.00000000e+00
17.00	1.30864161e+34	0.00000000e+00
17.10	1.02667028e+34	0.00000000e+00
17.20	8.05379870e+33	0.00000000e+00
17.30	6.31728625e+33	0.00000000e+00
17.40	4.95473948e+33	0.00000000e+00
17.50	3.88572466e+33	0.00000000e+00
17.60	3.04708539e+33	0.00000000e+00
17.70	2.38923611e+33	0.00000000e+00
17.80	1.87325025e+33	0.00000000e+00
17.90	1.46857201e+33	0.00000000e+00
18.00	1.15121872e+33	0.00000000e+00
18.10	9.02368668e+32	0.00000000e+00
18.20	7.07251925e+32	0.00000000e+00
18.30	5.54279295e+32	0.00000000e+00
18.40	4.34358124e+32	0.00000000e+00
18.50	3.40355218e+32	0.00000000e+00
18.60	2.66675080e+32	0.00000000e+00
18.70	2.08928837e+32	0.00000000e+00
18.80	1.63674360e+32	0.00000000e+00
18.90	1.28212270e+32	0.00000000e+00
19.00	1.00425861e+32	0.00000000e+00
19.10	7.86554685e+31	0.00000000e+00
19.20	6.15999034e+31	0.00000000e+00
19.30	4.82391025e+31	0.00000000e+00
19.40	3.77734655e+31	0.00000000e+00
19.50	2.95762565e+31	0.00000000e+00
19.60	2.31562728e+31	0.00000000e+00
19.70	1.81285689e+31	0.00000000e+00
19.80	1.41914937e+31	0.00000000e+00
19.90	1.11086873e+31	0.00000000e+00


#	f17-->o17	tau_cc (hr) = 1.48200000e+00
#	energy (MeV)	capture (MeV^-1 s^-1)	decay (MeV^-1 s^-1)
0.00	0.00000000e+00	0.00000000e+00
0.10	0.00000000e+00	1.38772605e+41
0.20	0.00000000e+00	5.00237339e+41
0.30	0.00000000e+00	1.00829593e+42
0.40	0.00000000e+00	1.59508604e+42
0.50	0.00000000e+00	2.20097119e+42
0.60	0.00000000e+00	2.77452596e+42
0.70	0.00000000e+00	3.27251222e+42
0.80	0.00000000e+00	3.65983994e+42
0.90	0.00000000e+00	3.90949757e+42
1.00	0.00000000e+00	4.00242204e+42
1.10	0.00000000e+00	3.92723982e+42
1.20	0.00000000e+00	3.67971183e+42
1.30	0.00000000e+00	3.26140098e+42
1.40	0.00000000e+00	2.67584844e+42
1.50	0.00000000e+00	1.91361852e+42
1.60	0.00000000e+00	8.32885784e+41
1.70	0.00000000e+00	7.89840004e+38
1.80	0.00000000e+00	3.15862285e+38
1.90	0.00000000e+00	4.31998406e+31
2.00	0.00000000e+00	4.77328675e+31
2.10	0.00000000e+00	5.24779682e+31
2.20	0.00000000e+00	5.74331925e+31
2.30	0.00000000e+00	6.25965945e+31
2.40	0.00000000e+00	6.79662434e+31
2.50	0.00000000e+00	7.35402002e+31
2.60	0.00000000e+00	7.93165359e+31
2.70	2.41965549e+40	8.52933390e+31
2.80	1.07377749e+40	9.14686863e+31
2.90	1.25432307e+40	9.78406663e+31
3.00	1.60022192e+40	1.04407385e+32
3.10	1.86059000e+40	1.11166931e+32
3.20	2.03801527e+40	1.18117422e+32
3.30	2.13282126e+40	1.25256964e+32
3.40	2.14812494e+40	1.32583681e+32
3.50	2.09232411e+40	1.40095690e+32
3.60	1.97887851e+40	1.47791120e+32
3.70	1.82417322e+40	1.55668120e+32
3.80	1.64482697e+40	1.63724811e+32
3.90	1.45551119e+40	1.71959360e+32
4.00	1.26774729e+40	1.80369900e+32
4.10	1.08962804e+40	1.88954603e+32
4.20	9.26154540e+39	1.97711622e+32
4.30	7.79860010e+39	2.06639131e+32
4.40	6.51483906e+39	2.15735308e+32
4.50	5.40568190e+39	2.24998329e+32
4.60	4.45928042e+39	2.34426376e+32
4.70	3.65995254e+39	2.44017648e+32
4.80	2.99053370e+39	2.53770345e+32
4.90	2.43389215e+39	2.63682655e+32
5.00	1.97383693e+39	2.73752801e+32
5.10	1.59560684e+39	2.83978988e+32
5.20	1.28608147e+39	2.94359444e+32
5.30	1.03381608e+39	3.04892388e+32
5.40	8.28971036e+38	3.15576048e+32
5.50	6.63183390e+38	3.26408670e+32
5.60	5.29411345e+38	3.37388489e+32
5.70	4.21771576e+38	3.48513757e+32
5.80	3.35380969e+38	3.59782726e+32
5.90	2.66209583e+38	3.71193655e+32
6.00	2.10948148e+38	3.82744806e+32
6.10	1.66891123e+38	3.94434456e+32
6.20	1.31835296e+38	4.06260875e+32
6.30	1.03992907e+38	4.18222349e+32
6.40	8.19180240e+37	4.30317161e+32
6.50	6.44446637e+37	4.42543608e+32
6.60	5.06351774e+37	4.54899984e+32
6.70	3.97374532e+37	4.67384595e+32
6.80	3.11496377e+37	4.79995755e+32
6.90	2.43911813e+37	4.92731777e+32
7.00	1.90791897e+37	5.05590982e+32
7.10	1.49091726e+37	5.18571693e+32
7.20	1.16394369e+37	5.31672249e+32
7.30	9.07846771e+36	5.44890979e+32
7.40	7.07476154e+36	5.58226240e+32
7.50	5.50865358e+36	5.71676366e+32
7.60	4.28576686e+36	5.85239744e+32
7.70	3.33177294e+36	5.98914655e+32
7.80	2.58821158e+36	6.12699580e+32
7.90	2.00916152e+36	6.26592764e+32
8.00	1.55859493e+36	6.40592746e+32
8.10	1.20827876e+36	6.54697714e+32
8.20	9.36112818e+35	6.68906207e+32
8.30	7.24815815e+35	6.83216588e+32
8.40	5.60888305e+35	6.97627221e+32
8.50	4.33795296e+35	7.12136526e+32
8.60	3.35322830e+35	7.26742926e+32
8.70	2.59072327e+35	7.41444784e+32
8.80	2.00063557e+35	7.56240638e+32
8.90	1.54423426e+35	7.71128794e+32
9.00	1.19142166e+35	7.86107789e+32
9.10	9.18826525e+34	8.01175929e+32
9.20	7.08313708e+34	8.16331811e+32
9.30	5.45820678e+34	8.31573798e+32
9.40	4.20450092e+34	8.46900370e+32
9.50	3.23762638e+34	8.62309949e+32
9.60	2.49226555e+34	8.77801073e+32
9.70	1.91789355e+34	8.93372165e+32
9.80	1.47544963e+34	9.09021762e+32
9.90	1.13475196e+34	9.24748228e+32
10.00	8.72490923e+33	9.40550219e+32
10.10	6.70673173e+33	9.56426039e+32
10.20	5.15415474e+33	9.72374344e+32
10.30	3.96010575e+33	9.88393614e+32
10.40	3.04204137e+33	1.00448233e+33
10.50	2.33635306e+33	1.02063897e+33
10.60	1.79404266e+33	1.03686213e+33
10.70	1.37738004e+33	1.05315036e+33
10.80	1.05732181e+33	1.06950206e+33
10.90	8.11518683e+32	1.08591591e+33
11.00	6.22777930e+32	1.10239043e+33
11.10	4.77877487e+32	1.11892411e+33
11.20	3.66651782e+32	1.13551554e+33
11.30	2.81287223e+32	1.15216333e+33
11.40	2.15779498e+32	1.16886600e+33
11.50	1.65515702e+32	1.18562210e+33
11.60	1.26952675e+32	1.20243029e+33
11.70	9.73694779e+31	1.21928910e+33
11.80	7.46769762e+31	1.23619712e+33
11.90	5.72714261e+31	1.25315297e+33
12.00	4.39218922e+31	1.27015523e+33
12.10	3.36837273e+31	1.28720249e+33
12.20	2.58320866e+31	1.30429343e+33
12.30	1.98108522e+31	1.32142663e+33
12.40	1.51934061e+31	1.33860069e+33
12.50	1.16525061e+31	1.35581432e+33
12.60	8.93715979e+30	1.37306607e+33
12.70	6.85487253e+30	1.39035464e+33
12.80	5.25802341e+30	1.40767864e+33
12.90	4.03341023e+30	1.42503677e+33
13.00	3.09422866e+30	1.44242764e+33
13.10	2.37391860e+30	1.45984991e+33
13.20	1.82144402e+30	1.47730233e+33
13.30	1.39767273e+30	1.49478346e+33
13.40	1.07259994e+30	1.51229211e+33
13.50	8.23219250e+29	1.52982684e+33
13.60	6.31890020e+29	1.54738642e+33
13.70	4.85085558e+29	1.56496955e+33
13.80	3.72433367e+29	1.58257489e+33
13.90	2.85979337e+29	1.60020122e+33
14.00	2.19623525e+29	1.61784713e+33
14.10	1.68687697e+29	1.63551152e+33
14.20	1.29583703e+29	1.65319297e+33
14.30	9.95592882e+28	1.67089021e+33
14.40	7.65031759e+28	1.68860211e+33
14.50	5.87956502e+28	1.70632729e+33
14.60	4.51939835e+28	1.72406457e+33
14.70	3.47445978e+28	1.74181266e+33
14.80	2.67157039e+28	1.75957034e+33
14.90	2.05456523e+28	1.77733638e+33
15.00	1.58033243e+28	1.79510949e+33
15.10	1.21577516e+28	1.81288856e+33
15.20	9.35481886e+27	1.83067231e+33
15.30	7.19938985e+27	1.84845957e+33
15.40	5.54159748e+27	1.86624905e+33
15.50	4.26632493e+27	1.88403958e+33
15.60	3.28513431e+27	1.90183005e+33
15.70	2.53007311e+27	1.91961918e+33
15.80	1.94892055e+27	1.93740580e+33
15.90	1.50153902e+27	1.95518873e+33
16.00	1.15707292e+27	1.97296687e+33
16.10	8.91798165e+26	1.99073893e+33
16.20	6.87470677e+26	2.00850385e+33
16.30	5.30058104e+26	2.02626048e+33
16.40	4.08765599e+26	2.04400758e+33
16.50	3.15287337e+26	2.06174410e+33
16.60	2.43231466e+26	2.07946881e+33
16.70	1.87678120e+26	2.09718066e+33
16.80	1.44839744e+26	2.11487848e+33
16.90	1.11799937e+26	2.13256116e+33
17.00	8.63126598e+25	2.15022759e+33
17.10	6.66478175e+25	2.16787666e+33
17.20	5.14724876e+25	2.18550725e+33
17.30	3.97595479e+25	2.20311833e+33
17.40	3.07173644e+25	2.22070865e+33
17.50	2.37356897e+25	2.23827728e+33
17.60	1.83440087e+25	2.25582312e+33
17.70	1.41794764e+25	2.27334499e+33
17.80	1.09622249e+25	2.29084190e+33
17.90	8.47634793e+24	2.30831279e+33
18.00	6.55525126e+24	2.32575656e+33
18.10	5.07036626e+24	2.34317216e+33
18.20	3.92245195e+24	2.36055859e+33
18.30	3.03489108e+24	2.37791480e+33
18.40	2.34852185e+24	2.39523967e+33
18.50	1.81765286e+24	2.41253228e+33
18.60	1.40698975e+24	2.42979151e+33
18.70	1.08926454e+24	2.44701642e+33
18.80	8.43406646e+23	2.46420591e+33
18.90	6.53131549e+23	2.48135904e+33
19.00	5.05851522e+23	2.49847482e+33
19.10	3.91834767e+23	2.51555220e+33
19.20	3.03556223e+23	2.53259023e+33
19.30	2.35196214e+23	2.54958787e+33
19.40	1.82253247e+23	2.56654424e+33
19.50	1.41244891e+23	2.58345823e+33
19.60	1.09476650e+23	2.60032896e+33
19.70	8.48633722e+22	2.61715545e+33
19.80	6.57912113e+22	2.63393674e+33
19.90	5.10109094e+22	2.65067186e+33


#	f18-->o18	tau_cc (hr) = 1.48200000e+00
#	energy (MeV)	capture (MeV^-1 s^-1)	decay (MeV^-1 s^-1)
0.00	0.00000000e+00	0.00000000e+00
0.10	0.00000000e+00	6.30841037e+44
0.20	0.00000000e+00	1.94916494e+45
0.30	0.00000000e+00	3.21574217e+45
0.40	0.00000000e+00	3.83022757e+45
0.50	0.00000000e+00	3.19600706e+45
0.60	0.00000000e+00	7.57546476e+44
0.70	0.00000000e+00	0.00000000e+00
0.80	0.00000000e+00	0.00000000e+00
0.90	0.00000000e+00	0.00000000e+00
1.00	0.00000000e+00	0.00000000e+00
1.10	0.00000000e+00	0.00000000e+00
1.20	0.00000000e+00	0.00000000e+00
1.30	0.00000000e+00	0.00000000e+00
1.40	0.00000000e+00	0.00000000e+00
1.50	0.00000000e+00	0.00000000e+00
1.60	6.67566734e+43	0.00000000e+00
1.70	1.09175815e+45	0.00000000e+00
1.80	1.38186262e+45	0.00000000e+00
1.90	1.11866870e+45	0.00000000e+00
2.00	7.89265127e+44	0.00000000e+00
2.10	5.17837895e+44	0.00000000e+00
2.20	3.24400076e+44	0.00000000e+00
2.30	1.96690597e+44	0.00000000e+00
2.40	1.16352418e+44	0.00000000e+00
2.50	6.74998294e+43	0.00000000e+00
2.60	3.85409658e+43	0.00000000e+00
2.70	2.17156574e+43	0.00000000e+00
2.80	1.20981578e+43	0.00000000e+00
2.90	6.67483027e+42	0.00000000e+00
3.00	3.65158545e+42	0.00000000e+00
3.10	1.98285003e+42	0.00000000e+00
3.20	1.06963924e+42	0.00000000e+00
3.30	5.73637305e+41	0.00000000e+00
3.40	3.06025347e+41	0.00000000e+00
3.50	1.62490363e+41	0.00000000e+00
3.60	8.59108825e+40	0.00000000e+00
3.70	4.52475192e+40	0.00000000e+00
3.80	2.37477911e+40	0.00000000e+00
3.90	1.24243481e+40	0.00000000e+00
4.00	6.48148122e+39	0.00000000e+00
4.10	3.37245337e+39	0.00000000e+00
4.20	1.75068084e+39	0.00000000e+00
4.30	9.06942937e+38	0.00000000e+00
4.40	4.69030946e+38	0.00000000e+00
4.50	2.42234836e+38	0.00000000e+00
4.60	1.24997343e+38	0.00000000e+00
4.70	6.44902461e+37	0.00000000e+00
4.80	3.33006550e+37	0.00000000e+00
4.90	1.72356543e+37	0.00000000e+00
5.00	8.96183095e+36	0.00000000e+00
5.10	4.69695348e+36	0.00000000e+00
5.20	2.49345525e+36	0.00000000e+00
5.30	1.34984383e+36	0.00000000e+00
5.40	7.51662173e+35	0.00000000e+00
5.50	4.34804080e+35	0.00000000e+00
5.60	2.63689499e+35	0.00000000e+00
5.70	1.68657829e+35	0.00000000e+00
5.80	1.13838276e+35	0.00000000e+00
5.90	8.06802854e+34	0.00000000e+00
6.00	5.95188946e+34	0.00000000e+00
6.10	4.52573660e+34	0.00000000e+00
6.20	3.51573054e+34	0.00000000e+00
6.30	2.77066032e+34	0.00000000e+00
6.40	2.20383314e+34	0.00000000e+00
6.50	1.76312685e+34	0.00000000e+00
6.60	1.41544890e+34	0.00000000e+00
6.70	1.13857928e+34	0.00000000e+00
6.80	9.16812241e+33	0.00000000e+00
6.90	7.38565186e+33	0.00000000e+00
7.00	5.95017793e+33	0.00000000e+00
7.10	4.79299691e+33	0.00000000e+00
7.20	3.85978125e+33	0.00000000e+00
7.30	3.10715645e+33	0.00000000e+00
7.40	2.50028776e+33	0.00000000e+00
7.50	2.01110219e+33	0.00000000e+00
7.60	1.61693294e+33	0.00000000e+00
7.70	1.29946165e+33	0.00000000e+00
7.80	1.04387952e+33	0.00000000e+00
7.90	8.38215561e+32	0.00000000e+00
8.00	6.72795494e+32	0.00000000e+00
8.10	5.39804266e+32	0.00000000e+00
8.20	4.32931668e+32	0.00000000e+00
8.30	3.47085220e+32	0.00000000e+00
8.40	2.78157253e+32	0.00000000e+00
8.50	2.22836243e+32	0.00000000e+00
8.60	1.78453860e+32	0.00000000e+00
8.70	1.42861132e+32	0.00000000e+00
8.80	1.14328218e+32	0.00000000e+00
8.90	9.14633346e+31	0.00000000e+00
9.00	7.31472086e+31	0.00000000e+00
9.10	5.84801369e+31	0.00000000e+00
9.20	4.67392260e+31	0.00000000e+00
9.30	3.73439003e+31	0.00000000e+00
9.40	2.98280768e+31	0.00000000e+00
9.50	2.38177396e+31	0.00000000e+00
9.60	1.90128728e+31	0.00000000e+00
9.70	1.51729128e+31	0.00000000e+00
9.80	1.21050399e+31	0.00000000e+00
9.90	9.65476008e+30	0.00000000e+00
10.00	7.69833175e+30	0.00000000e+00
10.10	6.13667969e+30	0.00000000e+00
10.20	4.89050533e+30	0.00000000e+00
10.30	3.89636082e+30	0.00000000e+00
10.40	3.10349742e+30	0.00000000e+00
10.50	2.47133722e+30	0.00000000e+00
10.60	1.96744485e+30	0.00000000e+00
10.70	1.56590202e+30	0.00000000e+00
10.80	1.24600426e+30	0.00000000e+00
10.90	9.91217190e+29	0.00000000e+00
11.00	7.88340588e+29	0.00000000e+00
11.10	6.26839087e+29	0.00000000e+00
11.20	4.98306683e+29	0.00000000e+00
11.30	3.96038241e+29	0.00000000e+00
11.40	3.14686839e+29	0.00000000e+00
11.50	2.49989829e+29	0.00000000e+00
11.60	1.98549883e+29	0.00000000e+00
11.70	1.57660051e+29	0.00000000e+00
11.80	1.25164052e+29	0.00000000e+00
11.90	9.93446885e+28	0.00000000e+00
12.00	7.88347907e+28	0.00000000e+00
12.10	6.25461439e+28	0.00000000e+00
12.20	4.96127868e+28	0.00000000e+00
12.30	3.93457885e+28	0.00000000e+00
12.40	3.11971913e+28	0.00000000e+00
12.50	2.47312698e+28	0.00000000e+00
12.60	1.96016239e+28	0.00000000e+00
12.70	1.55329313e+28	0.00000000e+00
12.80	1.23064143e+28	0.00000000e+00
12.90	9.74826613e+27	0.00000000e+00
13.00	7.72043795e+27	0.00000000e+00
13.10	6.11330663e+27	0.00000000e+00
13.20	4.83984057e+27	0.00000000e+00
13.30	3.83095898e+27	0.00000000e+00
13.40	3.03184116e+27	0.00000000e+00
13.50	2.39899199e+27	0.00000000e+00
13.60	1.89790933e+27	0.00000000e+00
13.70	1.50123029e+27	0.00000000e+00
13.80	1.18725841e+27	0.00000000e+00
13.90	9.38793610e+26	0.00000000e+00
14.00	7.42203144e+26	0.00000000e+00
14.10	5.86683788e+26	0.00000000e+00
14.20	4.63676248e+26	0.00000000e+00
14.30	3.66400362e+26	0.00000000e+00
14.40	2.89486307e+26	0.00000000e+00
14.50	2.28682034e+26	0.00000000e+00
14.60	1.80621209e+26	0.00000000e+00
14.70	1.42639199e+26	0.00000000e+00
14.80	1.12627191e+26	0.00000000e+00
14.90	8.89165466e+25	0.00000000e+00
