# Data for different parent isotopes separated by empty lines
# Column values are:
# [1] - neutrino energy (MeV)
# [2] - capture luminosity (1/MeV/s)
# [3] - decay luminosity (1/MeV/s)


#	h1-->neut	tau_cc (hr) = 0.00013053
#	energy (MeV)	capture (MeV^-1 s^-1)	decay (MeV^-1 s^-1)
0.00	0.00000000e+00	0.00000000e+00
0.10	3.40604919e+50	0.00000000e+00
0.20	1.36647504e+51	0.00000000e+00
0.30	3.05601235e+51	0.00000000e+00
0.40	5.35733027e+51	0.00000000e+00
0.50	8.19671349e+51	0.00000000e+00
0.60	1.14864939e+52	0.00000000e+00
0.70	1.51317456e+52	0.00000000e+00
0.80	1.90355542e+52	0.00000000e+00
0.90	2.31028823e+52	0.00000000e+00
1.00	2.72432170e+52	0.00000000e+00
1.10	3.13722617e+52	0.00000000e+00
1.20	3.54129410e+52	0.00000000e+00
1.30	3.92959548e+52	0.00000000e+00
1.40	4.29600612e+52	0.00000000e+00
1.50	4.63522190e+52	0.00000000e+00
1.60	4.94276525e+52	0.00000000e+00
1.70	5.21498828e+52	0.00000000e+00
1.80	5.44907146e+52	0.00000000e+00
1.90	5.64301791e+52	0.00000000e+00
2.00	5.79563971e+52	0.00000000e+00
2.10	5.90653339e+52	0.00000000e+00
2.20	5.97604453e+52	0.00000000e+00
2.30	6.00521727e+52	0.00000000e+00
2.40	5.99573116e+52	0.00000000e+00
2.50	5.94982462e+52	0.00000000e+00
2.60	5.87020815e+52	0.00000000e+00
2.70	5.75996900e+52	0.00000000e+00
2.80	5.62247183e+52	0.00000000e+00
2.90	5.46125818e+52	0.00000000e+00
3.00	5.27994957e+52	0.00000000e+00
3.10	5.08215619e+52	0.00000000e+00
3.20	4.87139571e+52	0.00000000e+00
3.30	4.65102365e+52	0.00000000e+00
3.40	4.42417687e+52	0.00000000e+00
3.50	4.19373094e+52	0.00000000e+00
3.60	3.96227160e+52	0.00000000e+00
3.70	3.73207867e+52	0.00000000e+00
3.80	3.50512180e+52	0.00000000e+00
3.90	3.28306576e+52	0.00000000e+00
4.00	3.06728347e+52	0.00000000e+00
4.10	2.85887503e+52	0.00000000e+00
4.20	2.65869040e+52	0.00000000e+00
4.30	2.46735472e+52	0.00000000e+00
4.40	2.28529423e+52	0.00000000e+00
4.50	2.11276245e+52	0.00000000e+00
4.60	1.94986498e+52	0.00000000e+00
4.70	1.79658317e+52	0.00000000e+00
4.80	1.65279553e+52	0.00000000e+00
4.90	1.51829731e+52	0.00000000e+00
5.00	1.39281780e+52	0.00000000e+00
5.10	1.27603552e+52	0.00000000e+00
5.20	1.16759135e+52	0.00000000e+00
5.30	1.06709975e+52	0.00000000e+00
5.40	9.74158349e+51	0.00000000e+00
5.50	8.88355761e+51	0.00000000e+00
5.60	8.09278266e+51	0.00000000e+00
5.70	7.36515026e+51	0.00000000e+00
5.80	6.69662431e+51	0.00000000e+00
5.90	6.08327399e+51	0.00000000e+00
6.00	5.52129962e+51	0.00000000e+00
6.10	5.00705181e+51	0.00000000e+00
6.20	4.53704488e+51	0.00000000e+00
6.30	4.10796573e+51	0.00000000e+00
6.40	3.71667886e+51	0.00000000e+00
6.50	3.36022823e+51	0.00000000e+00
6.60	3.03583667e+51	0.00000000e+00
6.70	2.74090318e+51	0.00000000e+00
6.80	2.47299871e+51	0.00000000e+00
6.90	2.22986057e+51	0.00000000e+00
7.00	2.00938623e+51	0.00000000e+00
7.10	1.80962624e+51	0.00000000e+00
7.20	1.62877665e+51	0.00000000e+00
7.30	1.46517155e+51	0.00000000e+00
7.40	1.31727503e+51	0.00000000e+00
7.50	1.18367349e+51	0.00000000e+00
7.60	1.06306796e+51	0.00000000e+00
7.70	9.54266446e+50	0.00000000e+00
7.80	8.56176765e+50	0.00000000e+00
7.90	7.67799411e+50	0.00000000e+00
8.00	6.88220884e+50	0.00000000e+00
8.10	6.16607236e+50	0.00000000e+00
8.20	5.52198040e+50	0.00000000e+00
8.30	4.94300645e+50	0.00000000e+00
8.40	4.42284766e+50	0.00000000e+00
8.50	3.95577453e+50	0.00000000e+00
8.60	3.53658355e+50	0.00000000e+00
8.70	3.16055336e+50	0.00000000e+00
8.80	2.82340353e+50	0.00000000e+00
8.90	2.52125684e+50	0.00000000e+00
9.00	2.25060412e+50	0.00000000e+00
9.10	2.00827159e+50	0.00000000e+00
9.20	1.79139118e+50	0.00000000e+00
9.30	1.59737286e+50	0.00000000e+00
9.40	1.42387928e+50	0.00000000e+00
9.50	1.26880260e+50	0.00000000e+00
9.60	1.13024323e+50	0.00000000e+00
9.70	1.00649023e+50	0.00000000e+00
9.80	8.96003614e+49	0.00000000e+00
9.90	7.97398088e+49	0.00000000e+00
10.00	7.09428200e+49	0.00000000e+00
10.10	6.30974838e+49	0.00000000e+00
10.20	5.61033025e+49	0.00000000e+00
10.30	4.98700706e+49	0.00000000e+00
10.40	4.43168639e+49	0.00000000e+00
10.50	3.93711209e+49	0.00000000e+00
10.60	3.49678118e+49	0.00000000e+00
10.70	3.10486820e+49	0.00000000e+00
10.80	2.75615723e+49	0.00000000e+00
10.90	2.44598021e+49	0.00000000e+00
11.00	2.17016103e+49	0.00000000e+00
11.10	1.92496562e+49	0.00000000e+00
11.20	1.70705629e+49	0.00000000e+00
11.30	1.51345102e+49	0.00000000e+00
11.40	1.34148658e+49	0.00000000e+00
11.50	1.18878534e+49	0.00000000e+00
11.60	1.05322553e+49	0.00000000e+00
11.70	9.32914371e+48	0.00000000e+00
11.80	8.26163967e+48	0.00000000e+00
11.90	7.31469700e+48	0.00000000e+00
12.00	6.47490752e+48	0.00000000e+00
12.10	5.73032732e+48	0.00000000e+00
12.20	5.07031992e+48	0.00000000e+00
12.30	4.48541662e+48	0.00000000e+00
12.40	3.96719074e+48	0.00000000e+00
12.50	3.50814553e+48	0.00000000e+00
12.60	3.10161337e+48	0.00000000e+00
12.70	2.74166601e+48	0.00000000e+00
12.80	2.42303410e+48	0.00000000e+00
12.90	2.14103527e+48	0.00000000e+00
13.00	1.89151004e+48	0.00000000e+00
13.10	1.67076426e+48	0.00000000e+00
13.20	1.47551816e+48	0.00000000e+00
13.30	1.30286051e+48	0.00000000e+00
13.40	1.15020794e+48	0.00000000e+00
13.50	1.01526864e+48	0.00000000e+00
13.60	8.96009873e+47	0.00000000e+00
13.70	7.90629232e+47	0.00000000e+00
13.80	6.97528895e+47	0.00000000e+00
13.90	6.15292736e+47	0.00000000e+00
14.00	5.42665982e+47	0.00000000e+00
14.10	4.78537062e+47	0.00000000e+00
14.20	4.21921508e+47	0.00000000e+00
14.30	3.71947600e+47	0.00000000e+00
14.40	3.27843641e+47	0.00000000e+00
14.50	2.88926618e+47	0.00000000e+00
14.60	2.54592131e+47	0.00000000e+00
14.70	2.24305481e+47	0.00000000e+00
14.80	1.97593702e+47	0.00000000e+00
14.90	1.74038539e+47	0.00000000e+00
15.00	1.53270180e+47	0.00000000e+00
15.10	1.34961714e+47	0.00000000e+00
15.20	1.18824212e+47	0.00000000e+00
15.30	1.04602366e+47	0.00000000e+00
15.40	9.20706050e+46	0.00000000e+00
15.50	8.10296813e+46	0.00000000e+00
15.60	7.13036273e+46	0.00000000e+00
15.70	6.27370605e+46	0.00000000e+00
15.80	5.51928011e+46	0.00000000e+00
15.90	4.85497617e+46	0.00000000e+00
16.00	4.27010763e+46	0.00000000e+00
16.10	3.75524467e+46	0.00000000e+00
16.20	3.30206784e+46	0.00000000e+00
16.30	2.90323836e+46	0.00000000e+00
16.40	2.55228377e+46	0.00000000e+00
16.50	2.24349642e+46	0.00000000e+00
16.60	1.97184401e+46	0.00000000e+00
16.70	1.73289025e+46	0.00000000e+00
16.80	1.52272494e+46	0.00000000e+00
16.90	1.33790203e+46	0.00000000e+00
17.00	1.17538508e+46	0.00000000e+00
17.10	1.03249886e+46	0.00000000e+00
17.20	9.06886748e+45	0.00000000e+00
17.30	7.96473139e+45	0.00000000e+00
17.40	6.99430101e+45	0.00000000e+00
17.50	6.14148104e+45	0.00000000e+00
17.60	5.39210101e+45	0.00000000e+00
17.70	4.73368688e+45	0.00000000e+00
17.80	4.15525906e+45	0.00000000e+00
17.90	3.64715511e+45	0.00000000e+00
18.00	3.20087247e+45	0.00000000e+00
18.10	2.80893039e+45	0.00000000e+00
18.20	2.46474787e+45	0.00000000e+00
18.30	2.16253619e+45	0.00000000e+00
18.40	1.89720413e+45	0.00000000e+00
18.50	1.66427450e+45	0.00000000e+00
18.60	1.45981057e+45	0.00000000e+00
18.70	1.28035116e+45	0.00000000e+00
18.80	1.12285368e+45	0.00000000e+00
18.90	9.84643700e+44	0.00000000e+00
19.00	8.63370697e+44	0.00000000e+00
19.10	7.56969107e+44	0.00000000e+00
19.20	6.63623939e+44	0.00000000e+00
19.30	5.81740553e+44	0.00000000e+00
19.40	5.09918104e+44	0.00000000e+00
19.50	4.46926057e+44	0.00000000e+00
19.60	3.91683642e+44	0.00000000e+00
19.70	3.43241709e+44	0.00000000e+00
19.80	3.00766802e+44	0.00000000e+00
19.90	2.63527114e+44	0.00000000e+00


#	f17-->o17	tau_cc (hr) = 1.30530000e-04
#	energy (MeV)	capture (MeV^-1 s^-1)	decay (MeV^-1 s^-1)
0.00	0.00000000e+00	0.00000000e+00
0.10	0.00000000e+00	1.01639155e+42
0.20	0.00000000e+00	3.46995187e+42
0.30	0.00000000e+00	6.61318490e+42
0.40	0.00000000e+00	9.87630212e+42
0.50	0.00000000e+00	1.28456078e+43
0.60	0.00000000e+00	1.52418021e+43
0.70	0.00000000e+00	1.68987467e+43
0.80	0.00000000e+00	1.77431058e+43
0.90	0.00000000e+00	1.77751476e+43
1.00	0.00000000e+00	1.70508493e+43
1.10	0.00000000e+00	1.56651245e+43
1.20	0.00000000e+00	1.37352717e+43
1.30	0.00000000e+00	1.13945181e+43
1.40	0.00000000e+00	8.76334341e+42
1.50	0.00000000e+00	5.96682010e+42
1.60	0.00000000e+00	2.95756791e+42
1.70	0.00000000e+00	4.07321290e+41
1.80	0.00000000e+00	4.46631871e+39
1.90	0.00000000e+00	0.00000000e+00
2.00	0.00000000e+00	0.00000000e+00
2.10	3.00137936e+38	0.00000000e+00
2.20	6.11149749e+39	0.00000000e+00
2.30	5.64145012e+40	0.00000000e+00
2.40	2.90199538e+41	0.00000000e+00
2.50	1.25374876e+42	0.00000000e+00
2.60	3.80037858e+42	0.00000000e+00
2.70	9.33011478e+42	0.00000000e+00
2.80	2.17212688e+43	0.00000000e+00
2.90	3.48502589e+43	0.00000000e+00
3.00	4.91535806e+43	0.00000000e+00
3.10	6.48554534e+43	0.00000000e+00
3.20	8.17901691e+43	0.00000000e+00
3.30	9.96663509e+43	0.00000000e+00
3.40	1.18117246e+44	0.00000000e+00
3.50	1.36727078e+44	0.00000000e+00
3.60	1.55054553e+44	0.00000000e+00
3.70	1.72656680e+44	0.00000000e+00
3.80	1.89112070e+44	0.00000000e+00
3.90	2.04041916e+44	0.00000000e+00
4.00	2.17127045e+44	0.00000000e+00
4.10	2.28119945e+44	0.00000000e+00
4.20	2.36851380e+44	0.00000000e+00
4.30	2.43231708e+44	0.00000000e+00
4.40	2.47247526e+44	0.00000000e+00
4.50	2.48954576e+44	0.00000000e+00
4.60	2.48467933e+44	0.00000000e+00
4.70	2.45950589e+44	0.00000000e+00
4.80	2.41601416e+44	0.00000000e+00
4.90	2.35643332e+44	0.00000000e+00
5.00	2.28312332e+44	0.00000000e+00
5.10	2.19847828e+44	0.00000000e+00
5.20	2.10484523e+44	0.00000000e+00
5.30	2.00445974e+44	0.00000000e+00
5.40	1.89939755e+44	0.00000000e+00
5.50	1.79154156e+44	0.00000000e+00
5.60	1.68256216e+44	0.00000000e+00
5.70	1.57390882e+44	0.00000000e+00
5.80	1.46681093e+44	0.00000000e+00
5.90	1.36228563e+44	0.00000000e+00
6.00	1.26115090e+44	0.00000000e+00
6.10	1.16404201e+44	0.00000000e+00
6.20	1.07143006e+44	0.00000000e+00
6.30	9.83641536e+43	0.00000000e+00
6.40	9.00877742e+43	0.00000000e+00
6.50	8.23233696e+43	0.00000000e+00
6.60	7.50715853e+43	0.00000000e+00
6.70	6.83258436e+43	0.00000000e+00
6.80	6.20738094e+43	0.00000000e+00
6.90	5.62986959e+43	0.00000000e+00
7.00	5.09803963e+43	0.00000000e+00
7.10	4.60964539e+43	0.00000000e+00
7.20	4.16228836e+43	0.00000000e+00
7.30	3.75348519e+43	0.00000000e+00
7.40	3.38072309e+43	0.00000000e+00
7.50	3.04150450e+43	0.00000000e+00
7.60	2.73338178e+43	0.00000000e+00
7.70	2.45398383e+43	0.00000000e+00
7.80	2.20103567e+43	0.00000000e+00
7.90	1.97237214e+43	0.00000000e+00
8.00	1.76594688e+43	0.00000000e+00
8.10	1.57983730e+43	0.00000000e+00
8.20	1.41224645e+43	0.00000000e+00
8.30	1.26150253e+43	0.00000000e+00
8.40	1.12605638e+43	0.00000000e+00
8.50	1.00447766e+43	0.00000000e+00
8.60	8.95449973e+42	0.00000000e+00
8.70	7.97765259e+42	0.00000000e+00
8.80	7.10317761e+42	0.00000000e+00
8.90	6.32097800e+42	0.00000000e+00
9.00	5.62185349e+42	0.00000000e+00
9.10	4.99743772e+42	0.00000000e+00
9.20	4.44013629e+42	0.00000000e+00
9.30	3.94306705e+42	0.00000000e+00
9.40	3.50000298e+42	0.00000000e+00
9.50	3.10531792e+42	0.00000000e+00
9.60	2.75393548e+42	0.00000000e+00
9.70	2.44128085e+42	0.00000000e+00
9.80	2.16323624e+42	0.00000000e+00
9.90	1.91609928e+42	0.00000000e+00
10.00	1.69654453e+42	0.00000000e+00
10.10	1.50158803e+42	0.00000000e+00
10.20	1.32855473e+42	0.00000000e+00
10.30	1.17504864e+42	0.00000000e+00
10.40	1.03892543e+42	0.00000000e+00
10.50	9.18267615e+41	0.00000000e+00
10.60	8.11361771e+41	0.00000000e+00
10.70	7.16677969e+41	0.00000000e+00
10.80	6.32851037e+41	0.00000000e+00
10.90	5.58663654e+41	0.00000000e+00
11.00	4.93030995e+41	0.00000000e+00
11.10	4.34986897e+41	0.00000000e+00
11.20	3.83671397e+41	0.00000000e+00
11.30	3.38319459e+41	0.00000000e+00
11.40	2.98250895e+41	0.00000000e+00
11.50	2.62861242e+41	0.00000000e+00
11.60	2.31613611e+41	0.00000000e+00
11.70	2.04031360e+41	0.00000000e+00
11.80	1.79691530e+41	0.00000000e+00
11.90	1.58218969e+41	0.00000000e+00
12.00	1.39281069e+41	0.00000000e+00
12.10	1.22583071e+41	0.00000000e+00
12.20	1.07863856e+41	0.00000000e+00
12.30	9.48922071e+40	0.00000000e+00
12.40	8.34634545e+40	0.00000000e+00
12.50	7.33964976e+40	0.00000000e+00
12.60	6.45311510e+40	0.00000000e+00
12.70	5.67257745e+40	0.00000000e+00
12.80	4.98551690e+40	0.00000000e+00
12.90	4.38087063e+40	0.00000000e+00
13.00	3.84886634e+40	0.00000000e+00
13.10	3.38087429e+40	0.00000000e+00
13.20	2.96927625e+40	0.00000000e+00
13.30	2.60734860e+40	0.00000000e+00
13.40	2.28915930e+40	0.00000000e+00
13.50	2.00947582e+40	0.00000000e+00
13.60	1.76368419e+40	0.00000000e+00
13.70	1.54771678e+40	0.00000000e+00
13.80	1.35798859e+40	0.00000000e+00
13.90	1.19134074e+40	0.00000000e+00
14.00	1.04499057e+40	0.00000000e+00
14.10	9.16487324e+39	0.00000000e+00
14.20	8.03673151e+39	0.00000000e+00
14.30	7.04648461e+39	0.00000000e+00
14.40	6.17741436e+39	0.00000000e+00
14.50	5.41480995e+39	0.00000000e+00
14.60	4.74573010e+39	0.00000000e+00
14.70	4.15879205e+39	0.00000000e+00
14.80	3.64398632e+39	0.00000000e+00
14.90	3.19251256e+39	0.00000000e+00
15.00	2.79663503e+39	0.00000000e+00
15.10	2.44955500e+39	0.00000000e+00
15.20	2.14529849e+39	0.00000000e+00
15.30	1.87861712e+39	0.00000000e+00
15.40	1.64490073e+39	0.00000000e+00
15.50	1.44010060e+39	0.00000000e+00
15.60	1.26066151e+39	0.00000000e+00
15.70	1.10346228e+39	0.00000000e+00
15.80	9.65763059e+38	0.00000000e+00
15.90	8.45159267e+38	0.00000000e+00
16.00	7.39540784e+38	0.00000000e+00
16.10	6.47056245e+38	0.00000000e+00
16.20	5.66081515e+38	0.00000000e+00
16.30	4.95192018e+38	0.00000000e+00
16.40	4.33138412e+38	0.00000000e+00
16.50	3.78825156e+38	0.00000000e+00
16.60	3.31291754e+38	0.00000000e+00
16.70	2.89696174e+38	0.00000000e+00
16.80	2.53300374e+38	0.00000000e+00
16.90	2.21457520e+38	0.00000000e+00
17.00	1.93600805e+38	0.00000000e+00
17.10	1.69233591e+38	0.00000000e+00
17.20	1.47920799e+38	0.00000000e+00
17.30	1.29281299e+38	0.00000000e+00
17.40	1.12981283e+38	0.00000000e+00
17.50	9.87284124e+37	0.00000000e+00
17.60	8.62666973e+37	0.00000000e+00
17.70	7.53720027e+37	0.00000000e+00
17.80	6.58481071e+37	0.00000000e+00
17.90	5.75232439e+37	0.00000000e+00
18.00	5.02470704e+37	0.00000000e+00
18.10	4.38880099e+37	0.00000000e+00
18.20	3.83309193e+37	0.00000000e+00
18.30	3.34750505e+37	0.00000000e+00
18.40	2.92322553e+37	0.00000000e+00
18.50	2.55254211e+37	0.00000000e+00
18.60	2.22870924e+37	0.00000000e+00
18.70	1.94582708e+37	0.00000000e+00
18.80	1.69873558e+37	0.00000000e+00
18.90	1.48292243e+37	0.00000000e+00
19.00	1.29444190e+37	0.00000000e+00
19.10	1.12984417e+37	0.00000000e+00
19.20	9.86113174e+36	0.00000000e+00
19.30	8.60612309e+36	0.00000000e+00
19.40	7.51036902e+36	0.00000000e+00
19.50	6.55372593e+36	0.00000000e+00
19.60	5.71858903e+36	0.00000000e+00
19.70	4.98957367e+36	0.00000000e+00
19.80	4.35323649e+36	0.00000000e+00
19.90	3.79783125e+36	0.00000000e+00


#	f18-->o18	tau_cc (hr) = 1.30530000e-04
#	energy (MeV)	capture (MeV^-1 s^-1)	decay (MeV^-1 s^-1)
0.00	0.00000000e+00	0.00000000e+00
0.10	0.00000000e+00	2.19135729e+45
0.20	0.00000000e+00	6.70398639e+45
0.30	0.00000000e+00	1.08980883e+46
0.40	0.00000000e+00	1.26295479e+46
0.50	0.00000000e+00	9.60891235e+45
0.60	0.00000000e+00	6.52188509e+42
0.70	0.00000000e+00	8.00759100e+33
0.80	0.00000000e+00	0.00000000e+00
0.90	2.57441142e+39	0.00000000e+00
1.00	2.24701270e+40	0.00000000e+00
1.10	1.03441828e+41	0.00000000e+00
1.20	2.97798922e+41	0.00000000e+00
1.30	7.35223609e+41	0.00000000e+00
1.40	1.57589577e+42	0.00000000e+00
1.50	2.88208336e+42	0.00000000e+00
1.60	3.50865552e+44	0.00000000e+00
1.70	4.56727713e+43	0.00000000e+00
1.80	1.99198501e+43	0.00000000e+00
1.90	1.95432241e+43	0.00000000e+00
2.00	2.19324026e+43	0.00000000e+00
2.10	2.58201053e+43	0.00000000e+00
2.20	3.09751368e+43	0.00000000e+00
2.30	3.72104327e+43	0.00000000e+00
2.40	4.43630390e+43	0.00000000e+00
2.50	5.22860505e+43	0.00000000e+00
2.60	6.08365289e+43	0.00000000e+00
2.70	6.98669060e+43	0.00000000e+00
2.80	7.92210793e+43	0.00000000e+00
2.90	8.87343542e+43	0.00000000e+00
3.00	9.82360701e+43	0.00000000e+00
3.10	1.07553865e+44	0.00000000e+00
3.20	1.16518744e+44	0.00000000e+00
3.30	1.24970275e+44	0.00000000e+00
3.40	1.32761427e+44	0.00000000e+00
3.50	1.39762695e+44	0.00000000e+00
3.60	1.45865329e+44	0.00000000e+00
3.70	1.50983559e+44	0.00000000e+00
3.80	1.55055841e+44	0.00000000e+00
3.90	1.58045185e+44	0.00000000e+00
4.00	1.59938660e+44	0.00000000e+00
4.10	1.60746193e+44	0.00000000e+00
4.20	1.60498796e+44	0.00000000e+00
4.30	1.59246311e+44	0.00000000e+00
4.40	1.57054788e+44	0.00000000e+00
4.50	1.54003615e+44	0.00000000e+00
4.60	1.50182482e+44	0.00000000e+00
4.70	1.45688297e+44	0.00000000e+00
4.80	1.40622158e+44	0.00000000e+00
4.90	1.35086477e+44	0.00000000e+00
5.00	1.29182348e+44	0.00000000e+00
5.10	1.23007232e+44	0.00000000e+00
5.20	1.16653010e+44	0.00000000e+00
5.30	1.10204456e+44	0.00000000e+00
5.40	1.03738106e+44	0.00000000e+00
5.50	9.73215548e+43	0.00000000e+00
5.60	9.10131231e+43	0.00000000e+00
5.70	8.48618602e+43	0.00000000e+00
5.80	7.89078278e+43	0.00000000e+00
5.90	7.31826137e+43	0.00000000e+00
6.00	6.77100033e+43	0.00000000e+00
6.10	6.25067597e+43	0.00000000e+00
6.20	5.75834558e+43	0.00000000e+00
6.30	5.29453279e+43	0.00000000e+00
6.40	4.85931015e+43	0.00000000e+00
6.50	4.45237736e+43	0.00000000e+00
6.60	4.07313316e+43	0.00000000e+00
6.70	3.72074001e+43	0.00000000e+00
6.80	3.39418100e+43	0.00000000e+00
6.90	3.09230910e+43	0.00000000e+00
7.00	2.81388900e+43	0.00000000e+00
7.10	2.55763199e+43	0.00000000e+00
7.20	2.32222487e+43	0.00000000e+00
7.30	2.10635298e+43	0.00000000e+00
7.40	1.90871892e+43	0.00000000e+00
7.50	1.72805653e+43	0.00000000e+00
7.60	1.56314190e+43	0.00000000e+00
7.70	1.41280116e+43	0.00000000e+00
7.80	1.27591589e+43	0.00000000e+00
7.90	1.15142664e+43	0.00000000e+00
8.00	1.03833475e+43	0.00000000e+00
8.10	9.35702905e+42	0.00000000e+00
8.20	8.42654729e+42	0.00000000e+00
8.30	7.58373617e+42	0.00000000e+00
8.40	6.82100908e+42	0.00000000e+00
8.50	6.13133725e+42	0.00000000e+00
8.60	5.50822440e+42	0.00000000e+00
8.70	4.94567991e+42	0.00000000e+00
8.80	4.43819068e+42	0.00000000e+00
8.90	3.98069242e+42	0.00000000e+00
9.00	3.56854140e+42	0.00000000e+00
9.10	3.19748609e+42	0.00000000e+00
9.20	2.86363996e+42	0.00000000e+00
9.30	2.56345488e+42	0.00000000e+00
9.40	2.29369606e+42	0.00000000e+00
9.50	2.05141785e+42	0.00000000e+00
9.60	1.83394105e+42	0.00000000e+00
9.70	1.63883135e+42	0.00000000e+00
9.80	1.46387936e+42	0.00000000e+00
9.90	1.30708165e+42	0.00000000e+00
10.00	1.16662333e+42	0.00000000e+00
10.10	1.04086175e+42	0.00000000e+00
10.20	9.28311367e+41	0.00000000e+00
10.30	8.27629868e+41	0.00000000e+00
10.40	7.37605260e+41	0.00000000e+00
10.50	6.57144072e+41	0.00000000e+00
10.60	5.85260453e+41	0.00000000e+00
10.70	5.21066196e+41	0.00000000e+00
10.80	4.63761594e+41	0.00000000e+00
10.90	4.12627112e+41	0.00000000e+00
11.00	3.67015724e+41	0.00000000e+00
11.10	3.26345974e+41	0.00000000e+00
11.20	2.90095627e+41	0.00000000e+00
11.30	2.57795904e+41	0.00000000e+00
11.40	2.29026240e+41	0.00000000e+00
11.50	2.03409531e+41	0.00000000e+00
11.60	1.80607814e+41	0.00000000e+00
11.70	1.60318343e+41	0.00000000e+00
11.80	1.42270080e+41	0.00000000e+00
11.90	1.26220455e+41	0.00000000e+00
12.00	1.11952508e+41	0.00000000e+00
12.10	9.92722464e+40	0.00000000e+00
12.20	8.80063067e+40	0.00000000e+00
12.30	7.79998176e+40	0.00000000e+00
12.40	6.91144867e+40	0.00000000e+00
12.50	6.12268798e+40	0.00000000e+00
12.60	5.42268622e+40	0.00000000e+00
12.70	4.80162083e+40	0.00000000e+00
12.80	4.25073443e+40	0.00000000e+00
12.90	3.76222224e+40	0.00000000e+00
13.00	3.32913097e+40	0.00000000e+00
13.10	2.94526809e+40	0.00000000e+00
13.20	2.60512056e+40	0.00000000e+00
13.30	2.30378181e+40	0.00000000e+00
13.40	2.03688653e+40	0.00000000e+00
13.50	1.80055214e+40	0.00000000e+00
13.60	1.59132664e+40	0.00000000e+00
13.70	1.40614167e+40	0.00000000e+00
13.80	1.24227066e+40	0.00000000e+00
13.90	1.09729168e+40	0.00000000e+00
14.00	9.69053828e+39	0.00000000e+00
14.10	8.55647516e+39	0.00000000e+00
14.20	7.55377894e+39	0.00000000e+00
14.30	6.66741036e+39	0.00000000e+00
14.40	5.88402877e+39	0.00000000e+00
14.50	5.19180291e+39	0.00000000e+00
14.60	4.58024286e+39	0.00000000e+00
14.70	4.04005038e+39	0.00000000e+00
14.80	3.56298563e+39	0.00000000e+00
14.90	3.14174834e+39	0.00000000e+00
