# Data for different parent isotopes separated by empty lines
# Column values are:
# [1] - neutrino energy (MeV)
# [2] - capture luminosity (1/MeV/s)
# [3] - decay luminosity (1/MeV/s)


#	h1-->neut	tau_cc (hr) = 3.8428
#	energy (MeV)	capture (MeV^-1 s^-1)	decay (MeV^-1 s^-1)
0.00	0.00000000e+00	0.00000000e+00
0.10	1.99735079e+46	0.00000000e+00
0.20	7.02697517e+46	0.00000000e+00
0.30	1.36161805e+47	0.00000000e+00
0.40	2.04871292e+47	0.00000000e+00
0.50	2.67080742e+47	0.00000000e+00
0.60	3.17141022e+47	0.00000000e+00
0.70	3.52533344e+47	0.00000000e+00
0.80	3.73048770e+47	0.00000000e+00
0.90	3.79972090e+47	0.00000000e+00
1.00	3.75405424e+47	0.00000000e+00
1.10	3.61769642e+47	0.00000000e+00
1.20	3.41471208e+47	0.00000000e+00
1.30	3.16702331e+47	0.00000000e+00
1.40	2.89339104e+47	0.00000000e+00
1.50	2.60906532e+47	0.00000000e+00
1.60	2.32585921e+47	0.00000000e+00
1.70	2.05246622e+47	0.00000000e+00
1.80	1.79489628e+47	0.00000000e+00
1.90	1.55694767e+47	0.00000000e+00
2.00	1.34066436e+47	0.00000000e+00
2.10	1.14675036e+47	0.00000000e+00
2.20	9.74927279e+46	0.00000000e+00
2.30	8.24231491e+46	0.00000000e+00
2.40	6.93253224e+46	0.00000000e+00
2.50	5.80322877e+46	0.00000000e+00
2.60	4.83651842e+46	0.00000000e+00
2.70	4.01435107e+46	0.00000000e+00
2.80	3.31922914e+46	0.00000000e+00
2.90	2.73467995e+46	0.00000000e+00
3.00	2.24553986e+46	0.00000000e+00
3.10	1.83809739e+46	0.00000000e+00
3.20	1.50013485e+46	0.00000000e+00
3.30	1.22089867e+46	0.00000000e+00
3.40	9.91023189e+45	0.00000000e+00
3.50	8.02425424e+45	0.00000000e+00
3.60	6.48185188e+45	0.00000000e+00
3.70	5.22419728e+45	0.00000000e+00
3.80	4.20159929e+45	0.00000000e+00
3.90	3.37232383e+45	0.00000000e+00
4.00	2.70150185e+45	0.00000000e+00
4.10	2.16013797e+45	0.00000000e+00
4.20	1.72422587e+45	0.00000000e+00
4.30	1.37396949e+45	0.00000000e+00
4.40	1.09310508e+45	0.00000000e+00
4.50	8.68316858e+44	0.00000000e+00
4.60	6.88737676e+44	0.00000000e+00
4.70	5.45525190e+44	0.00000000e+00
4.80	4.31504853e+44	0.00000000e+00
4.90	3.40870608e+44	0.00000000e+00
5.00	2.68935544e+44	0.00000000e+00
5.10	2.11924998e+44	0.00000000e+00
5.20	1.66805716e+44	0.00000000e+00
5.30	1.31145318e+44	0.00000000e+00
5.40	1.02997145e+44	0.00000000e+00
5.50	8.08061813e+43	0.00000000e+00
5.60	6.33325005e+43	0.00000000e+00
5.70	4.95890961e+43	0.00000000e+00
5.80	3.87915707e+43	0.00000000e+00
5.90	3.03175143e+43	0.00000000e+00
6.00	2.36737824e+43	0.00000000e+00
6.10	1.84702052e+43	0.00000000e+00
6.20	1.43985053e+43	0.00000000e+00
6.30	1.12154268e+43	0.00000000e+00
6.40	8.72926114e+42	0.00000000e+00
6.50	6.78910558e+42	0.00000000e+00
6.60	5.27631472e+42	0.00000000e+00
6.70	4.09770925e+42	0.00000000e+00
6.80	3.18018768e+42	0.00000000e+00
6.90	2.46645963e+42	0.00000000e+00
7.00	1.91167056e+42	0.00000000e+00
7.10	1.48073613e+42	0.00000000e+00
7.20	1.14623947e+42	0.00000000e+00
7.30	8.86774708e+41	0.00000000e+00
7.40	6.85643552e+41	0.00000000e+00
7.50	5.29830894e+41	0.00000000e+00
7.60	4.09200677e+41	0.00000000e+00
7.70	3.15865156e+41	0.00000000e+00
7.80	2.43690909e+41	0.00000000e+00
7.90	1.87912147e+41	0.00000000e+00
8.00	1.44828417e+41	0.00000000e+00
8.10	1.11568450e+41	0.00000000e+00
8.20	8.59058634e+40	0.00000000e+00
8.30	6.61154452e+40	0.00000000e+00
8.40	5.08611875e+40	0.00000000e+00
8.50	3.91091261e+40	0.00000000e+00
8.60	3.00595304e+40	0.00000000e+00
8.70	2.30942050e+40	0.00000000e+00
8.80	1.77355526e+40	0.00000000e+00
8.90	1.36148014e+40	0.00000000e+00
9.00	1.04473620e+40	0.00000000e+00
9.10	8.01372565e+39	0.00000000e+00
9.20	6.14466794e+39	0.00000000e+00
9.30	4.70979480e+39	0.00000000e+00
9.40	3.60868169e+39	0.00000000e+00
9.50	2.76402195e+39	0.00000000e+00
9.60	2.11633255e+39	0.00000000e+00
9.70	1.61986545e+39	0.00000000e+00
9.80	1.23945161e+39	0.00000000e+00
9.90	9.48066357e+38	0.00000000e+00
10.00	7.24951995e+38	0.00000000e+00
10.10	5.54171072e+38	0.00000000e+00
10.20	4.23491995e+38	0.00000000e+00
10.30	3.23531008e+38	0.00000000e+00
10.40	2.47091879e+38	0.00000000e+00
10.50	1.88658048e+38	0.00000000e+00
10.60	1.44002119e+38	0.00000000e+00
10.70	1.09885759e+38	0.00000000e+00
10.80	8.38291721e+37	0.00000000e+00
10.90	6.39340696e+37	0.00000000e+00
11.00	4.87478059e+37	0.00000000e+00
11.10	3.71591189e+37	0.00000000e+00
11.20	2.83181824e+37	0.00000000e+00
11.30	2.15753040e+37	0.00000000e+00
11.40	1.64339504e+37	0.00000000e+00
11.50	1.25147557e+37	0.00000000e+00
11.60	9.52796058e+36	0.00000000e+00
11.70	7.25231173e+36	0.00000000e+00
11.80	5.51891408e+36	0.00000000e+00
11.90	4.19887691e+36	0.00000000e+00
12.00	3.19386553e+36	0.00000000e+00
12.10	2.42887794e+36	0.00000000e+00
12.20	1.84672348e+36	0.00000000e+00
12.30	1.40380477e+36	0.00000000e+00
12.40	1.06689502e+36	0.00000000e+00
12.50	8.10677720e+35	0.00000000e+00
12.60	6.15868219e+35	0.00000000e+00
12.70	4.67780078e+35	0.00000000e+00
12.80	3.55231424e+35	0.00000000e+00
12.90	2.69710629e+35	0.00000000e+00
13.00	2.04740184e+35	0.00000000e+00
13.10	1.55391656e+35	0.00000000e+00
13.20	1.17916104e+35	0.00000000e+00
13.30	8.94624045e+34	0.00000000e+00
13.40	6.78627103e+34	0.00000000e+00
13.50	5.14690534e+34	0.00000000e+00
13.60	3.90289271e+34	0.00000000e+00
13.70	2.95905889e+34	0.00000000e+00
13.80	2.24309799e+34	0.00000000e+00
13.90	1.70008866e+34	0.00000000e+00
14.00	1.28832255e+34	0.00000000e+00
14.10	9.76131611e+33	0.00000000e+00
14.20	7.39475608e+33	0.00000000e+00
14.30	5.60108299e+33	0.00000000e+00
14.40	4.24183505e+33	0.00000000e+00
14.50	3.21195981e+33	0.00000000e+00
14.60	2.43176651e+33	0.00000000e+00
14.70	1.84081435e+33	0.00000000e+00
14.80	1.39327013e+33	0.00000000e+00
14.90	1.05438378e+33	0.00000000e+00
15.00	7.97812819e+32	0.00000000e+00
15.10	6.03591378e+32	0.00000000e+00
15.20	4.56589115e+32	0.00000000e+00
15.30	3.45342011e+32	0.00000000e+00
15.40	2.61165215e+32	0.00000000e+00
15.50	1.97480445e+32	0.00000000e+00
15.60	1.49305718e+32	0.00000000e+00
15.70	1.12868587e+32	0.00000000e+00
15.80	8.53129114e+31	0.00000000e+00
15.90	6.44766045e+31	0.00000000e+00
16.00	4.87232184e+31	0.00000000e+00
16.10	3.68143264e+31	0.00000000e+00
16.20	2.78128495e+31	0.00000000e+00
16.30	2.10098294e+31	0.00000000e+00
16.40	1.58689647e+31	0.00000000e+00
16.50	1.19846214e+31	0.00000000e+00
16.60	9.05003645e+30	0.00000000e+00
16.70	6.83324851e+30	0.00000000e+00
16.80	5.15888174e+30	0.00000000e+00
16.90	3.89435903e+30	0.00000000e+00
17.00	2.93947000e+30	0.00000000e+00
17.10	2.21847869e+30	0.00000000e+00
17.20	1.67415338e+30	0.00000000e+00
17.30	1.26325057e+30	0.00000000e+00
17.40	9.53100244e+29	0.00000000e+00
17.50	7.19023365e+29	0.00000000e+00
17.60	5.42379528e+29	0.00000000e+00
17.70	4.09091013e+29	0.00000000e+00
17.80	3.08527191e+29	0.00000000e+00
17.90	2.32661386e+29	0.00000000e+00
18.00	1.75433694e+29	0.00000000e+00
18.10	1.32269593e+29	0.00000000e+00
18.20	9.97162170e+28	0.00000000e+00
18.30	7.51676204e+28	0.00000000e+00
18.40	5.66572493e+28	0.00000000e+00
18.50	4.27012225e+28	0.00000000e+00
18.60	3.21799733e+28	0.00000000e+00
18.70	2.42488999e+28	0.00000000e+00
18.80	1.82708949e+28	0.00000000e+00
18.90	1.37654185e+28	0.00000000e+00
19.00	1.03700597e+28	0.00000000e+00
19.10	7.81152322e+27	0.00000000e+00
19.20	5.88373679e+27	0.00000000e+00
19.30	4.43133081e+27	0.00000000e+00
19.40	3.33717447e+27	0.00000000e+00
19.50	2.51297305e+27	0.00000000e+00
19.60	1.89217506e+27	0.00000000e+00
19.70	1.42462222e+27	0.00000000e+00
19.80	1.07251507e+27	0.00000000e+00
19.90	8.07370230e+26	0.00000000e+00


#	f17-->o17	tau_cc (hr) = 3.84280000e+00
#	energy (MeV)	capture (MeV^-1 s^-1)	decay (MeV^-1 s^-1)
0.00	0.00000000e+00	0.00000000e+00
0.10	0.00000000e+00	8.09847841e+40
0.20	0.00000000e+00	2.91947923e+41
0.30	0.00000000e+00	5.88505905e+41
0.40	0.00000000e+00	9.31076240e+41
0.50	0.00000000e+00	1.28487157e+42
0.60	0.00000000e+00	1.61989096e+42
0.70	0.00000000e+00	1.91090570e+42
0.80	0.00000000e+00	2.13743655e+42
0.90	0.00000000e+00	2.28371273e+42
1.00	0.00000000e+00	2.33859619e+42
1.10	0.00000000e+00	2.29543162e+42
1.20	0.00000000e+00	2.15172418e+42
1.30	0.00000000e+00	1.90836799e+42
1.40	0.00000000e+00	1.56744090e+42
1.50	0.00000000e+00	1.12361984e+42
1.60	0.00000000e+00	4.96438716e+41
1.70	0.00000000e+00	1.51980598e+38
1.80	0.00000000e+00	2.23388240e+37
1.90	0.00000000e+00	0.00000000e+00
2.00	0.00000000e+00	0.00000000e+00
2.10	0.00000000e+00	0.00000000e+00
2.20	0.00000000e+00	0.00000000e+00
2.30	0.00000000e+00	0.00000000e+00
2.40	0.00000000e+00	0.00000000e+00
2.50	0.00000000e+00	0.00000000e+00
2.60	0.00000000e+00	0.00000000e+00
2.70	1.33056421e+40	0.00000000e+00
2.80	3.36692930e+39	0.00000000e+00
2.90	4.26017914e+39	0.00000000e+00
3.00	5.93829116e+39	0.00000000e+00
3.10	7.45958331e+39	0.00000000e+00
3.20	8.67522267e+39	0.00000000e+00
3.30	9.48148109e+39	0.00000000e+00
3.40	9.82647761e+39	0.00000000e+00
3.50	9.72845627e+39	0.00000000e+00
3.60	9.26402238e+39	0.00000000e+00
3.70	8.53962705e+39	0.00000000e+00
3.80	7.66370398e+39	0.00000000e+00
3.90	6.72861865e+39	0.00000000e+00
4.00	5.80325798e+39	0.00000000e+00
4.10	4.93309200e+39	0.00000000e+00
4.20	4.14404367e+39	0.00000000e+00
4.30	3.44750123e+39	0.00000000e+00
4.40	2.84500261e+39	0.00000000e+00
4.50	2.33199609e+39	0.00000000e+00
4.60	1.90058647e+39	0.00000000e+00
4.70	1.54140165e+39	0.00000000e+00
4.80	1.24478219e+39	0.00000000e+00
4.90	1.00148660e+39	0.00000000e+00
5.00	8.03068654e+38	0.00000000e+00
5.10	6.42042694e+38	0.00000000e+00
5.20	5.11918330e+38	0.00000000e+00
5.30	4.07159314e+38	0.00000000e+00
5.40	3.23102480e+38	0.00000000e+00
5.50	2.55859147e+38	0.00000000e+00
5.60	2.02212799e+38	0.00000000e+00
5.70	1.59520845e+38	0.00000000e+00
5.80	1.25624599e+38	0.00000000e+00
5.90	9.87693536e+37	0.00000000e+00
6.00	7.75349117e+37	0.00000000e+00
6.10	6.07761788e+37	0.00000000e+00
6.20	4.75730238e+37	0.00000000e+00
6.30	3.71883481e+37	0.00000000e+00
6.40	2.90333389e+37	0.00000000e+00
6.50	2.26388401e+37	0.00000000e+00
6.60	1.76319308e+37	0.00000000e+00
6.70	1.37168361e+37	0.00000000e+00
6.80	1.06594522e+37	0.00000000e+00
6.90	8.27484755e+36	0.00000000e+00
7.00	6.41719939e+36	0.00000000e+00
7.10	4.97172094e+36	0.00000000e+00
7.20	3.84820369e+36	0.00000000e+00
7.30	2.97586398e+36	0.00000000e+00
7.40	2.29924226e+36	0.00000000e+00
7.50	1.77494657e+36	0.00000000e+00
7.60	1.36907231e+36	0.00000000e+00
7.70	1.05516205e+36	0.00000000e+00
7.80	8.12595152e+35	0.00000000e+00
7.90	6.25319114e+35	0.00000000e+00
8.00	4.80851865e+35	0.00000000e+00
8.10	3.69498196e+35	0.00000000e+00
8.20	2.83735505e+35	0.00000000e+00
8.30	2.17732834e+35	0.00000000e+00
8.40	1.66974940e+35	0.00000000e+00
8.50	1.27968679e+35	0.00000000e+00
8.60	9.80141371e+34	0.00000000e+00
8.70	7.50263348e+34	0.00000000e+00
8.80	5.73965486e+34	0.00000000e+00
8.90	4.38845534e+34	0.00000000e+00
9.00	3.35349777e+34	0.00000000e+00
9.10	2.56124515e+34	0.00000000e+00
9.20	1.95513693e+34	0.00000000e+00
9.30	1.49170198e+34	0.00000000e+00
9.40	1.13755269e+34	0.00000000e+00
9.50	8.67063878e+33	0.00000000e+00
9.60	6.60581107e+33	0.00000000e+00
9.70	5.03039253e+33	0.00000000e+00
9.80	3.82898173e+33	0.00000000e+00
9.90	2.91323343e+33	0.00000000e+00
10.00	2.21555510e+33	0.00000000e+00
10.10	1.68426210e+33	0.00000000e+00
10.20	1.27985595e+33	0.00000000e+00
10.30	9.72167493e+32	0.00000000e+00
10.40	7.38165682e+32	0.00000000e+00
10.50	5.60277785e+32	0.00000000e+00
10.60	4.25102521e+32	0.00000000e+00
10.70	3.22424839e+32	0.00000000e+00
10.80	2.44462097e+32	0.00000000e+00
10.90	1.85287621e+32	0.00000000e+00
11.00	1.40390134e+32	0.00000000e+00
11.10	1.06337264e+32	0.00000000e+00
11.20	8.05186290e+31	0.00000000e+00
11.30	6.09498248e+31	0.00000000e+00
11.40	4.61229272e+31	0.00000000e+00
11.50	3.48925416e+31	0.00000000e+00
11.60	2.63889812e+31	0.00000000e+00
11.70	1.99521539e+31	0.00000000e+00
11.80	1.50812339e+31	0.00000000e+00
11.90	1.13963717e+31	0.00000000e+00
12.00	8.60957278e+30	0.00000000e+00
12.10	6.50256095e+30	0.00000000e+00
12.20	4.90995592e+30	0.00000000e+00
12.30	3.70649592e+30	0.00000000e+00
12.40	2.79733569e+30	0.00000000e+00
12.50	2.11068335e+30	0.00000000e+00
12.60	1.59221340e+30	0.00000000e+00
12.70	1.20082945e+30	0.00000000e+00
12.80	9.05451909e+29	0.00000000e+00
12.90	6.82583103e+29	0.00000000e+00
13.00	5.14462570e+29	0.00000000e+00
13.10	3.87669924e+29	0.00000000e+00
13.20	2.92066967e+29	0.00000000e+00
13.30	2.19996947e+29	0.00000000e+00
13.40	1.65678660e+29	0.00000000e+00
13.50	1.24748112e+29	0.00000000e+00
13.60	9.39119006e+28	0.00000000e+00
13.70	7.06851535e+28	0.00000000e+00
13.80	5.31934762e+28	0.00000000e+00
13.90	4.00232857e+28	0.00000000e+00
14.00	3.01087613e+28	0.00000000e+00
14.10	2.26464619e+28	0.00000000e+00
14.20	1.70308628e+28	0.00000000e+00
14.30	1.28056974e+28	0.00000000e+00
14.40	9.62723433e+27	0.00000000e+00
14.50	7.23657348e+27	0.00000000e+00
14.60	5.43874739e+27	0.00000000e+00
14.70	4.08696220e+27	0.00000000e+00
14.80	3.07071485e+27	0.00000000e+00
14.90	2.30683615e+27	0.00000000e+00
15.00	1.73274101e+27	0.00000000e+00
15.10	1.30134189e+27	0.00000000e+00
15.20	9.77217475e+26	0.00000000e+00
15.30	7.33726548e+26	0.00000000e+00
15.40	5.50835075e+26	0.00000000e+00
15.50	4.13479889e+26	0.00000000e+00
15.60	3.10337121e+26	0.00000000e+00
15.70	2.32895263e+26	0.00000000e+00
15.80	1.74757661e+26	0.00000000e+00
15.90	1.31117731e+26	0.00000000e+00
16.00	9.83642468e+25	0.00000000e+00
16.10	7.37844285e+25	0.00000000e+00
16.20	5.53407078e+25	0.00000000e+00
16.30	4.15028756e+25	0.00000000e+00
16.40	3.11218965e+25	0.00000000e+00
16.50	2.33350744e+25	0.00000000e+00
16.60	1.74947796e+25	0.00000000e+00
16.70	1.31148931e+25	0.00000000e+00
16.80	9.83057356e+24	0.00000000e+00
16.90	7.36803351e+24	0.00000000e+00
17.00	5.52183948e+24	0.00000000e+00
17.10	4.13786361e+24	0.00000000e+00
17.20	3.10048435e+24	0.00000000e+00
17.30	2.32297557e+24	0.00000000e+00
17.40	1.74029228e+24	0.00000000e+00
17.50	1.30365575e+24	0.00000000e+00
17.60	9.76489399e+23	0.00000000e+00
17.70	7.31369250e+23	0.00000000e+00
17.80	5.47735764e+23	0.00000000e+00
17.90	4.10177082e+23	0.00000000e+00
18.00	3.07141305e+23	0.00000000e+00
18.10	2.29970549e+23	0.00000000e+00
18.20	1.72176555e+23	0.00000000e+00
18.30	1.28897411e+23	0.00000000e+00
18.40	9.64902355e+22	0.00000000e+00
18.50	7.22257573e+22	0.00000000e+00
18.60	5.40593695e+22	0.00000000e+00
18.70	4.04595038e+22	0.00000000e+00
18.80	3.02789890e+22	0.00000000e+00
18.90	2.26586467e+22	0.00000000e+00
19.00	1.69550419e+22	0.00000000e+00
19.10	1.26863471e+22	0.00000000e+00
19.20	9.49177940e+21	0.00000000e+00
19.30	7.10121233e+21	0.00000000e+00
19.40	5.31241092e+21	0.00000000e+00
19.50	3.97397931e+21	0.00000000e+00
19.60	2.97258840e+21	0.00000000e+00
19.70	2.22341055e+21	0.00000000e+00
19.80	1.66295572e+21	0.00000000e+00
19.90	1.24370759e+21	0.00000000e+00


#	f18-->o18	tau_cc (hr) = 3.84280000e+00
#	energy (MeV)	capture (MeV^-1 s^-1)	decay (MeV^-1 s^-1)
0.00	0.00000000e+00	0.00000000e+00
0.10	0.00000000e+00	3.41643852e+44
0.20	0.00000000e+00	1.05347465e+45
0.30	0.00000000e+00	1.73283058e+45
0.40	0.00000000e+00	2.05268643e+45
0.50	0.00000000e+00	1.68248964e+45
0.60	0.00000000e+00	3.20854830e+44
0.70	0.00000000e+00	0.00000000e+00
0.80	0.00000000e+00	0.00000000e+00
0.90	0.00000000e+00	0.00000000e+00
1.00	0.00000000e+00	0.00000000e+00
1.10	0.00000000e+00	0.00000000e+00
1.20	0.00000000e+00	0.00000000e+00
1.30	0.00000000e+00	0.00000000e+00
1.40	0.00000000e+00	0.00000000e+00
1.50	0.00000000e+00	0.00000000e+00
1.60	3.50440973e+43	0.00000000e+00
1.70	4.32606465e+44	0.00000000e+00
1.80	5.38809195e+44	0.00000000e+00
1.90	4.22084279e+44	0.00000000e+00
2.00	2.87908986e+44	0.00000000e+00
2.10	1.82717070e+44	0.00000000e+00
2.20	1.10803601e+44	0.00000000e+00
2.30	6.50872885e+43	0.00000000e+00
2.40	3.73315554e+43	0.00000000e+00
2.50	2.10151666e+43	0.00000000e+00
2.60	1.16524287e+43	0.00000000e+00
2.70	6.38054157e+42	0.00000000e+00
2.80	3.45711580e+42	0.00000000e+00
2.90	1.85633462e+42	0.00000000e+00
3.00	9.89056751e+41	0.00000000e+00
3.10	5.23414941e+41	0.00000000e+00
3.20	2.75354835e+41	0.00000000e+00
3.30	1.44099951e+41	0.00000000e+00
3.40	7.50612368e+40	0.00000000e+00
3.50	3.89374114e+40	0.00000000e+00
3.60	2.01236276e+40	0.00000000e+00
3.70	1.03656585e+40	0.00000000e+00
3.80	5.32331838e+39	0.00000000e+00
3.90	2.72640496e+39	0.00000000e+00
4.00	1.39295111e+39	0.00000000e+00
4.10	7.10110408e+38	0.00000000e+00
4.20	3.61296285e+38	0.00000000e+00
4.30	1.83507509e+38	0.00000000e+00
4.40	9.30704678e+37	0.00000000e+00
4.50	4.71491666e+37	0.00000000e+00
4.60	2.38679469e+37	0.00000000e+00
4.70	1.20801986e+37	0.00000000e+00
4.80	6.11776961e+36	0.00000000e+00
4.90	3.10366480e+36	0.00000000e+00
5.00	1.58002976e+36	0.00000000e+00
5.10	8.09221911e+35	0.00000000e+00
5.20	4.18488379e+35	0.00000000e+00
5.30	2.19663174e+35	0.00000000e+00
5.40	1.17830938e+35	0.00000000e+00
5.50	6.51301732e+34	0.00000000e+00
5.60	3.74202939e+34	0.00000000e+00
5.70	2.25112676e+34	0.00000000e+00
5.80	1.42323828e+34	0.00000000e+00
5.90	9.44593428e+33	0.00000000e+00
6.00	6.54447491e+33	0.00000000e+00
6.10	4.69470795e+33	0.00000000e+00
6.20	3.45686307e+33	0.00000000e+00
6.30	2.59281164e+33	0.00000000e+00
6.40	1.96905067e+33	0.00000000e+00
6.50	1.50739999e+33	0.00000000e+00
6.60	1.15973470e+33	0.00000000e+00
6.70	8.94862447e+32	0.00000000e+00
6.80	6.91571076e+32	0.00000000e+00
6.90	5.34839163e+32	0.00000000e+00
7.00	4.13690601e+32	0.00000000e+00
7.10	3.19921859e+32	0.00000000e+00
7.20	2.47306469e+32	0.00000000e+00
7.30	1.91071046e+32	0.00000000e+00
7.40	1.47533371e+32	0.00000000e+00
7.50	1.13842592e+32	0.00000000e+00
7.60	8.77871535e+31	0.00000000e+00
7.70	6.76499241e+31	0.00000000e+00
7.80	5.20973885e+31	0.00000000e+00
7.90	4.00941684e+31	0.00000000e+00
8.00	3.08367590e+31	0.00000000e+00
8.10	2.37019927e+31	0.00000000e+00
8.20	1.82069129e+31	0.00000000e+00
8.30	1.39775141e+31	0.00000000e+00
8.40	1.07243888e+31	0.00000000e+00
8.50	8.22376912e+30	0.00000000e+00
8.60	6.30277170e+30	0.00000000e+00
8.70	4.82793005e+30	0.00000000e+00
8.80	3.69628379e+30	0.00000000e+00
8.90	2.82846374e+30	0.00000000e+00
9.00	2.16332972e+30	0.00000000e+00
9.10	1.65381621e+30	0.00000000e+00
9.20	1.26371644e+30	0.00000000e+00
9.30	9.65195198e+29	0.00000000e+00
9.40	7.36866619e+29	0.00000000e+00
9.50	5.62309905e+29	0.00000000e+00
9.60	4.28924108e+29	0.00000000e+00
9.70	3.27045095e+29	0.00000000e+00
9.80	2.49265250e+29	0.00000000e+00
9.90	1.89909652e+29	0.00000000e+00
10.00	1.44633102e+29	0.00000000e+00
10.10	1.10110250e+29	0.00000000e+00
10.20	8.37975053e+28	0.00000000e+00
10.30	6.37501918e+28	0.00000000e+00
10.40	4.84822341e+28	0.00000000e+00
10.50	3.68585312e+28	0.00000000e+00
10.60	2.80124525e+28	0.00000000e+00
10.70	2.12826292e+28	0.00000000e+00
10.80	1.61645529e+28	0.00000000e+00
10.90	1.22735308e+28	0.00000000e+00
11.00	9.31634966e+27	0.00000000e+00
11.10	7.06960998e+27	0.00000000e+00
11.20	5.36316786e+27	0.00000000e+00
11.30	4.06748890e+27	0.00000000e+00
11.40	3.08399111e+27	0.00000000e+00
11.50	2.33767557e+27	0.00000000e+00
11.60	1.77150461e+27	0.00000000e+00
11.70	1.34211505e+27	0.00000000e+00
11.80	1.01655065e+27	0.00000000e+00
11.90	7.69772634e+26	0.00000000e+00
12.00	5.82763503e+26	0.00000000e+00
12.10	4.41083569e+26	0.00000000e+00
12.20	3.33772252e+26	0.00000000e+00
12.30	2.52512274e+26	0.00000000e+00
12.40	1.90993989e+26	0.00000000e+00
12.50	1.44432140e+26	0.00000000e+00
12.60	1.09198551e+26	0.00000000e+00
12.70	8.25430759e+25	0.00000000e+00
12.80	6.23816721e+25	0.00000000e+00
12.90	4.71354597e+25	0.00000000e+00
13.00	3.56085754e+25	0.00000000e+00
13.10	2.68954778e+25	0.00000000e+00
13.20	2.03106299e+25	0.00000000e+00
13.30	1.53351699e+25	0.00000000e+00
13.40	1.15764774e+25	0.00000000e+00
13.50	8.73752511e+24	0.00000000e+00
13.60	6.59365334e+24	0.00000000e+00
13.70	4.97497499e+24	0.00000000e+00
13.80	3.75304899e+24	0.00000000e+00
13.90	2.83078887e+24	0.00000000e+00
14.00	2.13482362e+24	0.00000000e+00
14.10	1.60971542e+24	0.00000000e+00
14.20	1.21358469e+24	0.00000000e+00
14.30	9.14800108e+23	0.00000000e+00
14.40	6.89475234e+23	0.00000000e+00
14.50	5.19575528e+23	0.00000000e+00
14.60	3.91487068e+23	0.00000000e+00
14.70	2.94934792e+23	0.00000000e+00
14.80	2.22164964e+23	0.00000000e+00
14.90	1.67327450e+23	0.00000000e+00
